  1.11681   -267.307  34.280
  1.12760    -18.295  35.244
  1.13839     20.613  35.470
  1.14918    114.246  35.858
  1.15997     39.167  35.688
  1.17076     28.124  35.716
  1.18155    -78.467  35.432
  1.19234     24.701  35.804
  1.20313     84.013  36.024
  1.21392    266.994  36.603
  1.22471    371.337  36.927
  1.23550    515.012  37.349
  1.24629    516.341  37.349
  1.25708    395.095  36.994
  1.26788    372.528  36.918
  1.27867    506.491  37.277
  1.28946    492.657  37.215
  1.30025    338.429  36.759
  1.31104    151.746  36.210
  1.32183    145.746  36.164
  1.33262    166.119  36.188
  1.34341    288.240  36.484
  1.35420    255.400  36.352
  1.36499    162.215  36.056
  1.37578    123.460  35.905
  1.38657    102.015  35.800
  1.39736    190.777  35.985
  1.40815    255.623  36.100
  1.41894    316.382  36.201
  1.42973    329.892  36.175
  1.44052    284.016  35.994
  1.45131    241.393  35.822
  1.46210    216.661  35.694
  1.47289    221.922  35.641
  1.48368    239.378  35.617
  1.49447    270.644  35.627
  1.50526    214.805  35.417
  1.51605    186.748  35.276
  1.52685    137.706  35.083
  1.53764     96.515  34.909
  1.54843    114.399  34.880
  1.55922    107.873  34.791
  1.57001     60.937  34.602
  1.58080     66.305  34.541
  1.59159     35.817  34.392
  1.60238     51.788  34.356
  1.61317     42.402  34.258
  1.62396     20.997  34.130
  1.63475    -18.398  33.960
  1.64554     24.911  33.987
  1.65633     -4.667  33.840
  1.66712    -20.164  33.727
  1.67791     13.254  33.729
  1.68870     35.804  33.704
  1.69949     25.399  33.603
  1.71028      1.847  33.470
  1.72107      4.329  33.399
  1.73186      1.897  33.316
  1.74265    -61.094  33.094
  1.75344    -67.324  33.003
  1.76423    -17.050  33.041
  1.77503      6.159  33.017
  1.78582     -6.684  32.911
  1.79661    -54.306  32.726
  1.80740    -37.196  32.689
  1.81819    -28.460  32.632
  1.82898    -40.263  32.530
  1.83977    -82.092  32.361
  1.85056    -72.502  32.307
  1.86135    -37.883  32.309
  1.87214    -17.307  32.279
  1.88293     -3.807  32.234
  1.89372     12.460  32.195
  1.90451    -60.142  31.962
  1.91530    -67.102  31.873
  1.92609    -76.707  31.779
  1.93688    -38.601  31.788
  1.94767    -22.321  31.751
  1.95846     -4.153  31.717
  1.96925     -8.856  31.634
  1.98004     31.996  31.649
  1.99083     61.134  31.639
  2.00162     71.945  31.590
  2.01241     44.940  31.462
  2.02320     23.572  31.346
  2.03400    -15.289  31.194
  2.04479    -46.819  31.058
  2.05558    -74.642  30.931
  2.06637    -77.917  30.856
  2.07716    -65.367  30.813
  2.08795    -51.438  30.774
  2.09874    -42.072  30.726
  2.10953    -13.696  30.717
  2.12032    -14.242  30.649
  2.13111    -37.960  30.533
  2.14190    -35.076  30.473
  2.15269      6.959  30.492
  2.16348     61.767  30.537
  2.17427     63.758  30.476
  2.18506     41.155  30.365
  2.19585     10.153  30.238
  2.20664     19.509  30.193
  2.21743     32.628  30.155
  2.22822     22.452  30.071
  2.23901     -1.940  29.960
  2.24980     -5.933  29.889
  2.26059    -35.403  29.768
  2.27138    -12.325  29.752
  2.28218     -7.690  29.700
  2.29297     -5.304  29.643
  2.30376     -0.143  29.593
  2.31455     32.323  29.595
  2.32534     20.514  29.512
  2.33613     -5.926  29.401
  2.34692     -7.122  29.339
  2.35771     32.084  29.356
  2.36850     12.717  29.260
  2.37929    -21.134  29.136
  2.39008    -52.785  29.018
  2.40087    -47.008  28.972
  2.41166    -52.611  28.904
  2.42245    -74.019  28.806
  2.43324    -55.092  28.786
  2.44403     -2.072  28.830
  2.45482      6.268  28.790
  2.46561      2.713  28.727
  2.47640     29.867  28.723
  2.48719     56.229  28.717
  2.49798     63.053  28.674
  2.50877     40.807  28.578
  2.51956     20.786  28.487
  2.53035     42.704  28.474
  2.54115     63.749  28.459
  2.55194     51.801  28.383
  2.56273     53.461  28.333
  2.57352     36.218  28.249
  2.58431     35.055  28.194
  2.59510     43.991  28.158
  2.60589     36.671  28.093
  2.61668      0.913  27.977
  2.62747     -7.289  27.911
  2.63826     25.637  27.919
  2.64905     30.708  27.878
  2.65984     -2.870  27.767
  2.67063     15.055  27.749
  2.68142     52.216  27.766
  2.69221     59.370  27.729
  2.70300     19.281  27.608
  2.71379     12.213  27.547
  2.72458     13.979  27.501
  2.73537     48.133  27.513
  2.74616     31.749  27.436
  2.75695     46.518  27.414
  2.76774     38.972  27.353
  2.77853     25.413  27.281
  2.78932      5.143  27.199
  2.80012      2.225  27.147
  2.81091    -24.147  27.054
  2.82170    -48.347  26.965
  2.83249    -64.810  26.890
  2.84328    -40.011  26.888
  2.85407    -10.172  26.894
  2.86486     10.642  26.885
  2.87565     10.848  26.840
  2.88644     16.492  26.804
  2.89723     24.084  26.773
  2.90802     24.840  26.729
  2.91881     23.221  26.682
  2.92960     43.041  26.672
  2.94039     33.065  26.611
  2.95118     12.625  26.532
  2.96197     -4.236  26.460
  2.97276     12.221  26.445
  2.98355      0.920  26.383
  2.99434     -2.749  26.334
  3.00513      8.448  26.310
  3.01592      0.436  26.254
  3.02671    -15.087  26.186
  3.03750    -15.140  26.144
  3.04830     15.630  26.154
  3.05909     34.487  26.144
  3.06988     40.160  26.112
  3.08067      3.073  26.009
  3.09146     -5.577  25.954
  3.10225     18.195  25.952
  3.11304     24.473  25.922
  3.12383    -16.986  25.813
  3.13462      0.754  25.802
  3.14541     19.899  25.794
  3.15620     31.715  25.773
  3.16699     17.959  25.711
  3.17778     25.455  25.684
  3.18857     52.431  25.688
  3.19936     61.427  25.664
  3.21015     31.101  25.576
  3.22094     16.536  25.513
  3.23173     23.472  25.486
  3.24252     45.180  25.483
  3.25331      5.623  25.381
  3.26410    -32.354  25.282
  3.27489    -25.077  25.255
  3.28568     19.366  25.289
  3.29647     35.049  25.277
  3.30727     43.320  25.252
  3.31806     39.397  25.209
  3.32885     24.632  25.148
  3.33964     16.657  25.099
  3.35043      2.592  25.040
  3.36122      0.335  25.000
  3.37201     44.312  25.033
  3.38280     49.358  25.005
  3.39359     34.160  24.945
  3.40438     19.940  24.886
  3.41517      9.207  24.834
  3.42596      1.963  24.787
  3.43675    -21.003  24.715
  3.44754    -36.849  24.655
  3.45833    -10.880  24.661
  3.46912     21.497  24.676
  3.47991     30.225  24.655
  3.49070     32.099  24.623
  3.50149      2.440  24.543
  3.51228     -7.240  24.493
  3.52307    -27.356  24.428
  3.53386    -35.092  24.382
  3.54465    -23.412  24.366
  3.55545     -8.592  24.355
  3.56624     22.645  24.369
  3.57703     21.758  24.334
  3.58782    -14.040  24.246
  3.59861    -16.174  24.210
  3.60940    -12.032  24.183
  3.62019     -5.106  24.160
  3.63098     -3.433  24.130
  3.64177      9.535  24.117
  3.65256     -3.801  24.064
  3.66335    -14.849  24.015
  3.67414     -3.795  23.999
  3.68493     16.671  23.998
  3.69572     16.452  23.965
  3.70651     23.929  23.944
  3.71730     13.747  23.897
  3.72809      1.374  23.847
  3.73888    -10.620  23.797
  3.74967    -12.301  23.763
  3.76046    -33.146  23.700
  3.77125    -60.435  23.628
  3.78204    -58.276  23.601
  3.79283    -16.749  23.631
  3.80362    -42.340  23.562
  3.81442    -36.015  23.541
  3.82521    -22.109  23.531
  3.83600      4.782  23.540
  3.84679    -22.853  23.468
  3.85758    -12.007  23.454
  3.86837    -14.198  23.420
  3.87916    -18.574  23.384
  3.88995      1.718  23.383
  3.90074     20.919  23.381
  3.91153     10.225  23.335
  3.92232    -29.898  23.247
  3.93311    -26.889  23.222
  3.94390    -29.604  23.188
  3.95469    -34.876  23.151
  3.96548    -40.469  23.113
  3.97627    -14.972  23.121
  3.98706    -18.730  23.086
  3.99785    -13.792  23.064
  4.00864    -18.331  23.029
  4.01943    -11.449  23.009
  4.03022    -18.749  22.970
  4.04101      3.585  22.973
  4.05180     29.791  22.982
  4.06260      4.383  22.917
  4.07339    -20.588  22.853
  4.08418     -9.040  22.841
  4.09497    -23.516  22.792
  4.10576    -31.294  22.752
  4.11655    -31.782  22.723
  4.12734    -17.970  22.715
  4.13813    -12.696  22.694
  4.14892     22.180  22.715
  4.15971      9.031  22.669
  4.17050      3.250  22.633
  4.18129    -21.505  22.570
  4.19208    -17.325  22.548
  4.20287     -7.541  22.534
  4.21366     10.556  22.532
  4.22445     19.524  22.517
  4.23524     -1.073  22.461
  4.24603     -6.003  22.427
  4.25682    -10.955  22.393
  4.26761     16.636  22.404
  4.27840     39.630  22.409
  4.28919     27.525  22.365
  4.29998     -0.469  22.299
  4.31077    -29.515  22.232
  4.32157    -40.284  22.190
  4.33236    -31.270  22.176
  4.34315    -44.707  22.131
  4.35394    -38.944  22.112
  4.36473    -29.886  22.098
  4.37552    -38.704  22.060
  4.38631    -44.297  22.026
  4.39710    -15.543  22.039
  4.40789      7.936  22.045
  4.41868     -1.852  22.005
  4.42947    -16.474  21.959
  4.44026    -29.571  21.915
  4.45105    -53.309  21.857
  4.46184    -41.343  21.847
  4.47263    -19.262  21.851
  4.48342    -23.506  21.820
  4.49421    -66.845  21.735
  4.50500    -60.490  21.718
  4.51579      1.020  21.776
  4.52658      6.652  21.758
  4.53737    -22.912  21.693
  4.54816    -37.574  21.647
  4.55895    -57.280  21.595
  4.56975    -34.405  21.601
  4.58054     10.975  21.637
  4.59133     39.180  21.649
  4.60212     40.810  21.626
  4.61291     34.408  21.593
  4.62370     13.724  21.540
  4.63449     16.413  21.519
  4.64528      5.601  21.479
  4.65607    -19.080  21.422
  4.66686      0.570  21.423
  4.67765     33.166  21.441
  4.68844     35.095  21.419
  4.69923     29.592  21.387
  4.71002     -4.582  21.318
  4.72081    -34.764  21.253
  4.73160    -28.618  21.237
  4.74239    -16.508  21.229
  4.75318    -16.164  21.205
  4.76397     22.892  21.232
  4.77476     63.821  21.262
  4.78555     57.999  21.230
  4.79634     62.670  21.212
  4.80713     69.715  21.197
  4.81792     43.460  21.139
  4.82872     37.940  21.108
  4.83951     49.271  21.098
  4.85030     83.267  21.119
  4.86109     80.277  21.091
  4.87188     87.733  21.077
  4.88267     96.010  21.064
  4.89346     57.881  20.991
  4.90425     18.835  20.917
  4.91504     45.531  20.928
  4.92583     66.255  20.932
  4.93662     66.955  20.909
  4.94741     64.898  20.883
  4.95820     78.171  20.877
  4.96899     69.553  20.843
  4.97978     76.386  20.829
  4.99057     78.280  20.808
  5.00136     59.420  20.761
  5.01215     51.609  20.728
  5.02294     72.892  20.733
  5.03373     86.980  20.728
  5.04452     86.871  20.705
  5.05531     81.337  20.675
  5.06610     77.234  20.647
  5.07690     77.959  20.626
  5.08769     77.317  20.603
  5.09848     86.687  20.592
  5.10927     91.949  20.576
  5.12006     78.489  20.537
  5.13085     74.232  20.510
  5.14164     82.980  20.499
  5.15243     57.318  20.444
  5.16322     29.774  20.388
  5.17401     24.043  20.358
  5.18480     43.915  20.362
  5.19559     70.364  20.373
  5.20638     73.826  20.356
  5.21717     71.359  20.331
  5.22796     65.860  20.303
  5.23875     51.353  20.263
  5.24954     70.582  20.266
  5.26033     70.566  20.244
  5.27112     75.232  20.229
  5.28191     89.102  20.225
  5.29270     70.848  20.181
  5.30349     59.537  20.146
  5.31428     65.873  20.133
  5.32508     70.333  20.118
  5.33587     52.179  20.074
  5.34666     21.434  20.015
  5.35745     56.365  20.038
  5.36824     94.794  20.065
  5.37903    107.725  20.060
  5.38982     99.603  20.030
  5.40061    119.251  20.033
  5.41140     97.564  19.986
  5.42219     99.286  19.968
  5.43298    104.050  19.954
  5.44377    116.006  19.948
  5.45456    123.407  19.937
  5.46535    130.038  19.925
  5.47614    147.363  19.927
  5.48693    164.718  19.928
  5.49772    161.309  19.904
  5.50851    130.352  19.847
  5.51930    124.764  19.820
  5.53009     99.517  19.770
  5.54088    103.180  19.755
  5.55167    108.332  19.742
  5.56246     89.839  19.700
  5.57325     86.189  19.677
  5.58404    108.508  19.685
  5.59484    132.491  19.694
  5.60563    150.288  19.697
  5.61642    106.645  19.625
  5.62721     77.240  19.571
  5.63800     38.952  19.506
  5.64879     48.243  19.499
  5.65958     58.058  19.492
  5.67037     71.044  19.490
  5.68116     70.521  19.471
  5.69195     36.964  19.412
  5.70274     17.066  19.370
  5.71353     30.765  19.368
  5.72432     33.969  19.354
  5.73511     49.628  19.355
  5.74590     45.366  19.332
  5.75669     30.857  19.297
  5.76748     34.327  19.284
  5.77827     53.812  19.289
  5.78906     33.937  19.248
  5.79985     -1.854  19.188
  5.81064     -1.672  19.171
  5.82143     28.671  19.190
  5.83222     32.432  19.177
  5.84302     18.868  19.144
  5.85381      2.129  19.108
  5.86460     14.565  19.105
  5.87539     20.899  19.096
  5.88618     -6.522  19.047
  5.89697    -30.929  19.002
  5.90776    -18.083  19.000
  5.91855     -3.122  19.002
  5.92934      8.972  19.000
  5.94013     11.856  18.987
  5.95092     11.273  18.970
  5.96171    -18.345  18.919
  5.97250    -22.127  18.899
  5.98329    -22.810  18.882
  5.99408    -15.928  18.874
  6.00487      1.025  18.878
  6.01566    -10.023  18.850
  6.02645     -8.950  18.836
  6.03724     -1.227  18.829
  6.04803     -3.159  18.812
  6.05882     11.803  18.814
  6.06961     34.645  18.825
  6.08040     17.621  18.790
  6.09120    -13.452  18.739
  6.10199    -14.646  18.723
  6.11278      0.915  18.726
  6.12357     13.962  18.726
  6.13436     14.308  18.712
  6.14515     19.466  18.703
  6.15594      7.495  18.675
  6.16673    -56.931  18.586
  6.17752    -76.871  18.549
  6.18831    -50.415  18.565
  6.19910    -15.526  18.591
  6.20989     -9.752  18.584
  6.22068    -13.473  18.565
  6.23147    -23.855  18.540
  6.24226    -25.581  18.524
  6.25305     -8.537  18.530
  6.26384      0.075  18.526
  6.27463    -13.401  18.497
  6.28542    -21.470  18.474
  6.29621    -36.632  18.443
  6.30700    -62.598  18.401
  6.31779    -45.890  18.406
  6.32858     -2.070  18.443
  6.33938    -14.174  18.416
  6.35017    -41.341  18.372
  6.36096    -59.105  18.339
  6.37175    -46.846  18.341
  6.38254    -41.339  18.334
  6.39333    -50.304  18.311
  6.40412    -64.524  18.283
  6.41491    -65.122  18.269
  6.42570    -27.064  18.300
  6.43649    -15.248  18.301
  6.44728    -27.170  18.275
  6.45807      1.085  18.295
  6.46886     12.705  18.296
  6.47965    -26.890  18.239
  6.49044    -37.157  18.216
  6.50123    -35.689  18.206
  6.51202    -65.234  18.161
  6.52281    -63.845  18.150
  6.53360    -49.161  18.155
  6.54439    -48.873  18.144
  6.55518    -47.668  18.134
  6.56597    -36.708  18.135
  6.57676    -47.462  18.111
  6.58755    -45.614  18.102
  6.59835    -32.994  18.105
  6.60914    -25.885  18.102
  6.61993    -51.615  18.062
  6.63072    -35.679  18.069
  6.64151     -8.776  18.087
  6.65230    -19.166  18.065
  6.66309     -6.330  18.068
  6.67388     38.794  18.107
  6.68467     46.779  18.105
  6.69546     28.056  18.074
  6.70625     24.454  18.059
  6.71704     39.533  18.065
  6.72783     43.246  18.059
  6.73862     71.200  18.079
  6.74941     69.379  18.066
  6.76020    102.142  18.092
  6.77099    116.196  18.096
  6.78178    125.980  18.097
  6.79257    128.690  18.089
  6.80336    141.247  18.093
  6.81415    148.613  18.091
  6.82494    133.740  18.064
  6.83573    103.929  18.022
  6.84652    104.225  18.013
  6.85732    102.563  18.001
  6.86811     85.927  17.974
  6.87890     51.533  17.927
  6.88969     53.849  17.920
  6.90048     58.371  17.915
  6.91127     70.572  17.918
  6.92206     97.012  17.937
  6.93285    137.876  17.971
  6.94364    192.386  18.019
  6.95443    206.006  18.024
  6.96522    194.751  18.003
  6.97601    179.055  17.977
  6.98680    163.561  17.951
  6.99759    151.195  17.929
  7.00838    166.614  17.936
  7.01917    163.586  17.924
  7.02996    185.502  17.937
  7.04075    173.168  17.915
  7.05154    166.602  17.899
  7.06233    144.177  17.867
  7.07312    122.960  17.836
  7.08391     97.151  17.800
  7.09470    130.839  17.826
  7.10550    139.983  17.827
  7.11629    125.252  17.803
  7.12708    126.503  17.795
  7.13787    132.288  17.792
  7.14866    164.127  17.817
  7.15945    190.654  17.836
  7.17024    199.950  17.837
  7.18103    212.383  17.841
  7.19182    227.452  17.848
  7.20261    250.403  17.863
  7.21340    289.180  17.894
  7.22419    364.463  17.962
  7.23498    466.522  18.057
  7.24577    535.188  18.118
  7.25656    626.509  18.201
  7.26735    849.258  18.414
  7.27814   1281.620  18.827
  7.28893   2018.386  19.516
  7.29972   2984.600  20.385
  7.31051   3937.350  21.204
  7.32130   4712.783  21.844
  7.33209   5158.586  22.197
  7.34288   5155.401  22.182
  7.35367   4392.773  21.541
  7.36447   3074.684  20.399
  7.37526   1871.648  19.299
  7.38605   1209.962  18.665
  7.39684    886.615  18.342
  7.40763    688.030  18.139
  7.41842    579.535  18.023
  7.42921    517.008  17.953
  7.44000    469.319  17.897
  7.45079    408.311  17.828
  7.46158    349.283  17.760
  7.47237    313.074  17.716
  7.48316    300.455  17.695
  7.49395    297.339  17.684
  7.50474    254.944  17.633
  7.51553    207.593  17.578
  7.52632    175.760  17.538
  7.53711    168.811  17.522
  7.54790    156.688  17.502
  7.55869    152.556  17.490
  7.56948    158.666  17.488
  7.58027    128.025  17.449
  7.59106    117.691  17.431
  7.60185    127.972  17.433
  7.61265    103.100  17.400
  7.62344     59.186  17.348
  7.63423     52.249  17.334
  7.64502     57.195  17.330
  7.65581     90.595  17.356
  7.66660     99.014  17.356
  7.67739     72.759  17.322
  7.68818     53.845  17.295
  7.69897     65.499  17.299
  7.70976     63.963  17.289
  7.72055     92.288  17.309
  7.73134    105.939  17.315
  7.74213     86.816  17.288
  7.75292     83.849  17.277
  7.76371     62.408  17.247
  7.77450     41.716  17.219
  7.78529     54.778  17.224
  7.79608     72.762  17.233
  7.80687     81.070  17.233
  7.81766     95.764  17.239
  7.82845    115.617  17.251
  7.83924    115.766  17.243
  7.85003     90.199  17.209
  7.86083     87.116  17.198
  7.87162    103.669  17.206
  7.88241     80.249  17.175
  7.89320     91.301  17.177
  7.90399    124.633  17.201
  7.91478    125.060  17.193
  7.92557     99.331  17.160
  7.93636     79.293  17.132
  7.94715     93.318  17.137
  7.95794     96.368  17.132
  7.96873    102.338  17.129
  7.97952    111.261  17.129
  7.99031    108.368  17.118
  8.00110    125.201  17.125
  8.01189    168.301  17.158
  8.02268    170.826  17.152
  8.03347    168.442  17.141
  8.04426    173.005  17.137
  8.05505    165.593  17.121
  8.06584    177.587  17.123
  8.07663    208.745  17.144
  8.08742    235.297  17.161
  8.09821    237.037  17.153
  8.10900    256.138  17.163
  8.11979    273.252  17.170
  8.13059    278.141  17.165
  8.14138    317.991  17.194
  8.15217    370.294  17.234
  8.16296    399.120  17.252
  8.17375    440.275  17.281
  8.18454    496.481  17.324
  8.19533    564.553  17.378
  8.20612    696.899  17.491
  8.21691    905.652  17.672
  8.22770   1334.819  18.049
  8.23849   2130.508  18.733
  8.24928   3187.233  19.606
  8.26007   4139.187  20.357
  8.27086   4748.244  20.818
  8.28165   5354.944  21.266
  8.29244   6255.343  21.919
  8.30323   6675.014  22.208
  8.31402   6132.607  21.803
  8.32481   4477.745  20.548
  8.33560   2793.922  19.191
  8.34639   1632.088  18.195
  8.35718   1033.673  17.656
  8.36798    749.520  17.390
  8.37877    615.862  17.258
  8.38956    502.679  17.144
  8.40035    387.612  17.028
  8.41114    307.758  16.943
  8.42193    262.094  16.891
  8.43272    224.316  16.846
  8.44351    188.311  16.802
  8.45430    163.426  16.769
  8.46509    152.904  16.749
  8.47588    135.351  16.722
  8.48667    104.583  16.683
  8.49746    127.978  16.694
  8.50825    140.292  16.695
  8.51904    105.962  16.653
  8.52983     82.342  16.621
  8.54062     69.329  16.598
  8.55141     40.244  16.560
  8.56220     13.995  16.525
  8.57299     15.344  16.516
  8.58378     30.383  16.519
  8.59457     36.899  16.515
  8.60536     26.497  16.494
  8.61615     14.711  16.472
  8.62695     12.265  16.459
  8.63774     18.021  16.454
  8.64853     25.865  16.450
  8.65932     24.131  16.437
  8.67011      1.351  16.405
  8.68090      5.151  16.398
  8.69169     -1.680  16.380
  8.70248      6.264  16.376
  8.71327      9.751  16.368
  8.72406      6.185  16.354
  8.73485      8.076  16.344
  8.74564     -6.126  16.320
  8.75643     -5.868  16.309
  8.76722     -2.221  16.300
  8.77801     10.960  16.301
  8.78880      3.409  16.283
  8.79959     11.015  16.278
  8.81038      0.608  16.257
  8.82117    -18.025  16.228
  8.83196    -29.577  16.205
  8.84275    -41.050  16.183
  8.85354    -49.821  16.163
  8.86433    -47.431  16.153
  8.87512    -37.713  16.150
  8.88592    -11.815  16.162
  8.89671    -18.896  16.144
  8.90750    -52.183  16.101
  8.91829    -42.676  16.098
  8.92908    -26.902  16.100
  8.93987    -10.978  16.102
  8.95066     -7.723  16.093
  8.96145     -9.683  16.079
  8.97224     -8.694  16.067
  8.98303     -6.725  16.057
  8.99382     -6.873  16.044
  9.00461     -2.145  16.036
  9.01540     -1.199  16.024
  9.02619    -18.078  15.996
  9.03698    -33.105  15.970
  9.04777    -68.119  15.925
  9.05856    -82.700  15.899
  9.06935    -36.539  15.929
  9.08014     -2.052  15.947
  9.09093      4.181  15.940
  9.10172     -4.299  15.919
  9.11251     -8.777  15.902
  9.12330    -30.185  15.870
  9.13410    -37.837  15.850
  9.14489    -23.768  15.849
  9.15568     -9.855  15.849
  9.16647      8.043  15.852
  9.17726     24.998  15.854
  9.18805     26.874  15.842
  9.19884     18.778  15.822
  9.20963      9.030  15.800
  9.22042     -8.367  15.770
  9.23121     -6.533  15.759
  9.24200     -0.432  15.751
  9.25279     -7.349  15.731
  9.26358      0.989  15.725
  9.27437     31.222  15.739
  9.28516     21.552  15.716
  9.29595     -6.116  15.677
  9.30674     -4.579  15.665
  9.31753     18.214  15.672
  9.32832     22.659  15.662
  9.33911      6.302  15.633
  9.34990    -11.085  15.604
  9.36069    -37.858  15.566
  9.37148    -42.925  15.547
  9.38227    -22.191  15.552
  9.39307    -25.667  15.535
  9.40386    -51.677  15.497
  9.41465    -57.745  15.477
  9.42544    -36.317  15.483
  9.43623     19.929  15.519
  9.44702     44.147  15.527
  9.45781      6.197  15.478
  9.46860     -9.978  15.450
  9.47939      7.274  15.451
  9.49018     14.994  15.443
  9.50097     28.620  15.441
  9.51176     10.589  15.411
  9.52255    -19.665  15.369
  9.53334    -29.781  15.345
  9.54413    -23.998  15.336
  9.55492     -9.964  15.334
  9.56571     16.091  15.343
  9.57650     16.425  15.329
  9.58729      4.716  15.303
  9.59808     16.660  15.299
  9.60887     13.997  15.282
  9.61966      5.915  15.260
  9.63045     13.106  15.252
  9.64124      2.876  15.228
  9.65204      1.289  15.212
  9.66283     23.154  15.217
  9.67362     42.393  15.219
  9.68441     35.812  15.198
  9.69520     49.741  15.196
  9.70599     54.557  15.185
  9.71678     71.319  15.185
  9.72757    118.216  15.212
  9.73836    157.939  15.233
  9.74915    160.582  15.220
  9.75994    149.119  15.195
  9.77073     94.384  15.131
  9.78152     44.130  15.071
  9.79231     19.052  15.033
  9.80310     23.509  15.022
  9.81389     24.492  15.008
  9.82468     21.855  14.990
  9.83547     24.519  14.978
  9.84626     16.218  14.955
  9.85705      2.517  14.927
  9.86784     12.810  14.921
  9.87863     -1.720  14.893
  9.88943    -31.542  14.851
  9.90022    -14.324  14.851
  9.91101     -2.208  14.847
  9.92180      2.970  14.836
  9.93259      8.958  14.826
  9.94338     21.648  14.822
  9.95417     18.458  14.804
  9.96496     19.319  14.790
  9.97575     32.442  14.786
  9.98654     57.017  14.793
  9.99733     49.963  14.771
 10.00812     26.517  14.735
 10.01891     18.603  14.712
 10.02970     15.900  14.694
 10.04049      3.343  14.668
 10.05128     -1.991  14.647
 10.06207     13.536  14.646
 10.07286     15.385  14.632
 10.08365     21.037  14.622
 10.09444     25.503  14.610
 10.10523     26.881  14.596
 10.11602     28.280  14.582
 10.12681     45.211  14.582
 10.13761     44.146  14.565
 10.14840     21.017  14.529
 10.15919     36.080  14.527
 10.16998     48.582  14.523
 10.18077     39.725  14.499
 10.19156     28.028  14.474
 10.20235     35.583  14.465
 10.21314     22.015  14.437
 10.22393      4.830  14.406
 10.23472      4.837  14.391
 10.24551     14.026  14.384
 10.25630     11.533  14.366
 10.26709      1.157  14.341
 10.27788      2.201  14.327
 10.28867     15.205  14.323
 10.29946     14.756  14.307
 10.31025     -3.194  14.276
 10.32104      2.292  14.265
 10.33183     -4.813  14.243
 10.34262    -12.583  14.221
 10.35341     -9.417  14.208
 10.36420     12.027  14.212
 10.37499     -3.135  14.183
 10.38578     -8.209  14.163
 10.39658     17.442  14.171
 10.40737     29.908  14.167
 10.41816     16.434  14.139
 10.42895      3.706  14.113
 10.43974      2.551  14.096
 10.45053     24.124  14.100
 10.46132     19.176  14.081
 10.47211      3.618  14.051
 10.48290      4.848  14.037
 10.49369     15.273  14.031
 10.50448     10.519  14.012
 10.51527      0.582  13.988
 10.52606     -5.845  13.967
 10.53685    -17.180  13.941
 10.54764      4.973  13.946
 10.55843     23.874  13.948
 10.56922     21.734  13.931
 10.58001     -3.818  13.893
 10.59080      0.079  13.881
 10.60159     15.547  13.880
 10.61238      0.201  13.851
 10.62317    -14.668  13.822
 10.63396    -24.101  13.799
 10.64475    -29.180  13.779
 10.65555    -43.774  13.751
 10.66634    -49.365  13.731
 10.67713    -22.273  13.741
 10.68792      6.088  13.751
 10.69871     -0.320  13.730
 10.70950     -9.963  13.707
 10.72029    -18.480  13.684
 10.73108    -32.450  13.657
 10.74187    -43.351  13.632
 10.75266    -45.664  13.616
 10.76345    -20.899  13.623
 10.77424     -7.647  13.620
 10.78503    -16.696  13.597
 10.79582    -47.880  13.555
 10.80661    -40.970  13.546
 10.81740    -24.857  13.546
 10.82819    -15.624  13.540
 10.83898      4.112  13.543
 10.84977     -0.955  13.523
 10.86056     -8.369  13.502
 10.87135    -16.419  13.481
 10.88214    -15.055  13.467
 10.89293     -2.260  13.464
 10.90372    -17.950  13.436
 10.91451    -31.967  13.409
 10.92530    -17.726  13.407
 10.93610      2.991  13.411
 10.94689      7.299  13.401
 10.95768      4.693  13.384
 10.96847     -6.532  13.360
 10.97926      2.386  13.354
 10.99005     43.156  13.376
 11.00084     64.458  13.381
 11.01163     57.932  13.361
 11.02242     35.625  13.327
 11.03321     39.839  13.317
 11.04400     66.780  13.327
 11.05479     83.089  13.327
 11.06558     96.514  13.325
 11.07637     92.220  13.307
 11.08716     81.771  13.284
 11.09795     97.887  13.285
 11.10874    114.277  13.285
 11.11953    132.094  13.287
 11.13032    151.973  13.291
 11.14111    168.436  13.292
 11.15190    172.704  13.282
 11.16269    209.020  13.301
 11.17349    353.949  13.415
 11.18428    616.111  13.629
 11.19507    958.773  13.908
 11.20586   1273.079  14.157
 11.21665   1390.344  14.240
 11.22744   1172.635  14.047
 11.23823    808.743  13.727
 11.24902    510.534  13.457
 11.25981    334.782  13.290
 11.27060    251.485  13.203
 11.28139    188.094  13.134
 11.29218    149.454  13.086
 11.30297    155.749  13.079
 11.31376    177.184  13.084
 11.32455    159.636  13.056
 11.33534    131.336  13.017
 11.34613    148.880  13.020
 11.35692    175.506  13.030
 11.36771    183.327  13.024
 11.37850    165.655  12.996
 11.38929    169.617  12.986
 11.40008    209.515  13.009
 11.41088    281.159  13.059
 11.42167    441.560  13.187
 11.43246    698.877  13.397
 11.44325   1083.044  13.709
 11.45404   1472.500  14.019
 11.46483   1578.184  14.092
 11.47562   1265.135  13.823
 11.48641    818.739  13.435
 11.49720    493.961  13.144
 11.50799    346.835  13.002
 11.51878    281.986  12.933
 11.52957    265.504  12.906
 11.54036    270.146  12.897
 11.55115    260.091  12.876
 11.56194    267.616  12.870
 11.57273    283.632  12.872
 11.58352    285.988  12.862
 11.59431    301.180  12.863
 11.60510    316.473  12.864
 11.61589    300.325  12.838
 11.62668    311.030  12.835
 11.63747    347.355  12.855
 11.64826    385.958  12.876
 11.65906    455.972  12.926
 11.66985    524.002  12.973
 11.68064    566.606  12.997
 11.69143    609.246  13.022
 11.70222    686.575  13.077
 11.71301    780.608  13.145
 11.72380    906.396  13.240
 11.73459   1072.852  13.368
 11.74538   1287.285  13.535
 11.75617   1591.083  13.771
 11.76696   2051.050  14.128
 11.77775   2759.968  14.665
 11.78854   4069.800  15.617
 11.79933   7221.452  17.709
 11.81012  18448.267  23.721
 11.82091  58697.435  38.154
 11.83170 168933.650  62.447
 11.84249 357159.932  89.819
 11.85328 558398.531 111.873
 11.86407 624056.083 118.137
 11.87486 501733.872 106.017
 11.88565 285520.507  80.343
 11.89644 112432.850  51.290
 11.90723  35177.654  30.421
 11.91803  11577.110  20.119
 11.92882   5880.196  16.701
 11.93961   4188.687  15.536
 11.95040   3523.700  15.047
 11.96119   3213.430  14.807
 11.97198   3195.893  14.783
 11.98277   3413.660  14.932
 11.99356   3939.088  15.301
 12.00435   5360.371  16.273
 12.01514   7708.904  17.769
 12.02593  11324.863  19.854
 12.03672  14601.111  21.566
 12.04751  16490.739  22.487
 12.05830  16209.084  22.337
 12.06909  14151.993  21.299
 12.07988  11505.192  19.891
 12.09067   9563.084  18.789
 12.10146   8609.718  18.218
 12.11225   8974.057  18.422
 12.12304  10624.824  19.355
 12.13383  14538.793  21.419
 12.14462  19657.420  23.849
 12.15541  23315.974  25.437
 12.16620  23064.025  25.316
 12.17699  18823.340  23.428
 12.18778  13138.342  20.638
 12.19858   8923.112  18.297
 12.20937   6525.474  16.819
 12.22016   5191.492  15.933
 12.23095   4378.295  15.365
 12.24174   3907.739  15.022
 12.25253   3489.118  14.710
 12.26332   3074.203  14.394
 12.27411   2650.738  14.065
 12.28490   2224.699  13.727
 12.29569   1823.633  13.401
 12.30648   1512.346  13.141
 12.31727   1281.419  12.942
 12.32806   1133.982  12.810
 12.33885    996.932  12.685
 12.34964    868.895  12.567
 12.36043    768.326  12.471
 12.37122    671.763  12.379
 12.38201    579.544  12.289
 12.39280    503.648  12.213
 12.40359    427.255  12.137
 12.41438    377.883  12.083
 12.42517    339.795  12.040
 12.43597    314.016  12.007
 12.44675    317.524  12.000
 12.45755    303.876  11.978
 12.46834    253.261  11.923
 12.47913    184.011  11.852
 12.48992    137.328  11.800
 12.50071    129.801  11.783
 12.51150    101.242  11.748
 12.52229     90.788  11.728
 12.53308     80.255  11.709
 12.54387     64.459  11.685
 12.55466     54.169  11.665
 12.56545     29.821  11.633
 12.57624     29.726  11.623
 12.58703     30.902  11.614
 12.59782     15.052  11.590
 12.60861      3.440  11.570
 12.61940     -2.158  11.555
 12.63019     -6.214  11.541
 12.64098    -18.139  11.520
 12.65177    -17.123  11.511
 12.66256      1.127  11.518
 12.67336     -4.993  11.502
 12.68414    -14.730  11.483
 12.69494    -18.824  11.470
 12.70573    -12.219  11.466
 12.71652    -14.505  11.454
 12.72731    -19.804  11.439
 12.73810    -25.390  11.424
 12.74889     -2.020  11.435
 12.75968     29.230  11.453
 12.77047     40.177  11.453
 12.78126     39.486  11.443
 12.79205     45.638  11.438
 12.80284     58.689  11.440
 12.81363     61.449  11.433
 12.82442     92.141  11.450
 12.83521    131.199  11.475
 12.84600    195.337  11.522
 12.85679    311.305  11.614
 12.86758    464.449  11.738
 12.87837    591.040  11.837
 12.88916    642.175  11.871
 12.89995    612.611  11.836
 12.91074    535.556  11.760
 12.92154    486.686  11.708
 12.93232    488.194  11.699
 12.94312    546.718  11.740
 12.95391    653.088  11.821
 12.96470    835.515  11.966
 12.97549   1152.570  12.221
 12.98628   1481.087  12.479
 12.99707   1718.621  12.659
 13.00786   1768.072  12.689
 13.01865   1710.053  12.633
 13.02944   1754.560  12.658
 13.04023   1973.771  12.821
 13.05102   2417.316  13.154
 13.06181   3065.774  13.629
 13.07260   3991.295  14.283
 13.08339   5458.393  15.266
 13.09418   7793.660  16.715
 13.10497  11181.108  18.619
 13.11576  14232.625  20.177
 13.12655  15125.574  20.602
 13.13734  13164.869  19.619
 13.14813   9332.044  17.556
 13.15892   5880.551  15.467
 13.16971   3662.383  13.960
 13.18051   2480.903  13.082
 13.19130   1839.779  12.576
 13.20209   1439.801  12.247
 13.21288   1168.234  12.016
 13.22367    976.137  11.846
 13.23446    827.091  11.711
 13.24525    729.848  11.619
 13.25604    665.413  11.554
 13.26683    606.842  11.494
 13.27762    567.826  11.451
 13.28841    549.166  11.425
 13.29920    531.969  11.400
 13.30999    542.834  11.399
 13.32078    623.170  11.458
 13.33157    782.914  11.584
 13.34236    931.525  11.699
 13.35315    952.724  11.707
 13.36394    834.765  11.598
 13.37473    682.412  11.458
 13.38552    573.256  11.355
 13.39631    531.631  11.309
 13.40710    521.989  11.291
 13.41789    533.096  11.290
 13.42868    584.834  11.324
 13.43947    619.784  11.344
 13.45026    638.017  11.350
 13.46106    690.061  11.384
 13.47185    755.032  11.429
 13.48264    818.608  11.473
 13.49343    889.221  11.522
 13.50422    981.266  11.589
 13.51501   1101.328  11.679
 13.52580   1232.477  11.777
 13.53659   1375.456  11.883
 13.54738   1537.647  12.004
 13.55817   1758.471  12.170
 13.56896   2047.346  12.386
 13.57975   2418.314  12.661
 13.59054   2888.885  13.004
 13.60133   3476.775  13.421
 13.61212   4340.047  14.015
 13.62291   5802.101  14.972
 13.63370   8393.096  16.538
 13.64449  13965.088  19.489
 13.65528  28459.797  25.625
 13.66607  69553.600  37.966
 13.67686 155459.042  55.503
 13.68765 271432.349  72.739
 13.69844 355258.306  82.974
 13.70923 350685.220  82.412
 13.72003 258926.688  70.990
 13.73082 142196.390  53.058
 13.74161  60400.692  35.473
 13.75240  23068.036  23.415
 13.76319  12264.186  18.513
 13.77398  10257.505  17.443
 13.78477  11211.803  17.943
 13.79556  13963.882  19.330
 13.80635  17594.686  21.021
 13.81714  21061.942  22.514
 13.82793  21905.176  22.853
 13.83872  20187.997  22.121
 13.84951  17797.077  21.065
 13.86030  15756.783  20.120
 13.87109  13748.350  19.145
 13.88188  11369.499  17.927
 13.89267   8917.339  16.581
 13.90346   6698.045  15.261
 13.91425   5289.914  14.358
 13.92504   4392.584  13.749
 13.93584   3793.035  13.324
 13.94662   3368.398  13.011
 13.95742   2998.445  12.732
 13.96820   2686.505  12.490
 13.97900   2438.117  12.293
 13.98979   2210.093  12.108
 14.00058   1992.879  11.929
 14.01137   1822.431  11.784
 14.02216   1676.379  11.658
 14.03295   1537.534  11.536
 14.04374   1415.203  11.426
 14.05453   1363.603  11.373
 14.06532   1339.205  11.343
 14.07611   1364.686  11.353
 14.08690   1458.780  11.419
 14.09769   1615.230  11.534
 14.10848   1708.235  11.598
 14.11927   1661.434  11.550
 14.13006   1463.197  11.380
 14.14085   1247.338  11.193
 14.15164   1106.989  11.066
 14.16243   1021.871  10.984
 14.17322    987.804  10.944
 14.18401    992.257  10.937
 14.19480   1038.720  10.966
 14.20560   1138.300  11.038
 14.21639   1222.871  11.097
 14.22718   1212.161  11.078
 14.23797   1113.609  10.985
 14.24876   1002.910  10.881
 14.25955    939.560  10.817
 14.27034    889.025  10.763
 14.28113    850.955  10.720
 14.29192    824.108  10.686
 14.30271    824.061  10.676
 14.31350    825.739  10.666
 14.32429    808.463  10.640
 14.33508    796.463  10.619
 14.34587    790.326  10.603
 14.35666    767.835  10.573
 14.36745    721.725  10.522
 14.37824    677.606  10.473
 14.38903    646.644  10.435
 14.39982    612.529  10.395
 14.41061    584.263  10.359
 14.42140    562.501  10.329
 14.43219    516.624  10.278
 14.44299    471.039  10.227
 14.45377    443.312  10.191
 14.46457    400.246  10.142
 14.47536    366.429  10.101
 14.48615    362.830  10.087
 14.49694    342.967  10.058
 14.50773    340.449  10.045
 14.51852    354.812  10.046
 14.52931    341.064  10.023
 14.54010    329.463  10.001
 14.55089    359.821  10.018
 14.56168    397.405  10.040
 14.57247    438.147  10.065
 14.58326    483.987  10.095
 14.59405    556.809  10.148
 14.60484    729.717  10.288
 14.61563   1103.157  10.596
 14.62642   1794.263  11.151
 14.63721   2622.007  11.783
 14.64800   3193.101  12.196
 14.65879   3204.086  12.193
 14.66958   2698.247  11.808
 14.68037   2028.597  11.283
 14.69116   1478.037  10.831
 14.70195   1168.957  10.564
 14.71274   1051.633  10.455
 14.72354    947.195  10.355
 14.73433    768.901  10.191
 14.74512    557.938   9.995
 14.75591    370.766   9.817
 14.76670    268.871   9.714
 14.77749    201.945   9.642
 14.78828    151.014   9.585
 14.79907    108.232   9.534
 14.80986     67.817   9.486
 14.82065     51.880   9.460
 14.83144     24.897   9.424
 14.84223      5.111   9.394
 14.85302      2.005   9.380
 14.86381     -7.815   9.360
 14.87460     -9.315   9.348
 14.88539     -6.535   9.339
 14.89618    -23.179   9.312
 14.90697    -16.267   9.308
 14.91776      2.868   9.315
 14.92855     -3.254   9.298
 14.93934     -7.144   9.283
 14.95013     -7.428   9.272
 14.96092      2.134   9.270
 14.97171      5.498   9.262
 14.98251      7.389   9.253
 14.99330      6.314   9.241
 15.00409      8.027   9.232
 15.01488     -1.135   9.213
 15.02567    -19.538   9.184
 15.03646    -21.927   9.171
 15.04725    -17.793   9.164
 15.05804     -4.940   9.166
 15.06883      4.818   9.164
 15.07962    -10.803   9.138
 15.09041     -1.975   9.136
 15.10120     29.305   9.155
 15.11199     41.767   9.156
 15.12278     43.123   9.146
 15.13357     55.533   9.147
 15.14436     40.204   9.122
 15.15515      6.782   9.080
 15.16594    -11.772   9.052
 15.17673    -19.586   9.034
 15.18752    -20.974   9.022
 15.19831    -13.625   9.018
 15.20910    -10.710   9.011
 15.21989     -3.727   9.007
 15.23068     -1.947   8.998
 15.24148     16.264   9.005
 15.25227     39.579   9.016
 15.26306     35.511   9.002
 15.27385     30.998   8.987
 15.28464     55.604   9.000
 15.29543     65.849   9.000
 15.30622     68.849   8.992
 15.31701     93.912   9.006
 15.32780    110.180   9.011
 15.33859    121.370   9.011
 15.34938    147.245   9.025
 15.36017    173.400   9.040
 15.37096    174.352   9.030
 15.38175    175.189   9.021
 15.39254    193.066   9.028
 15.40333    232.587   9.055
 15.41412    258.978   9.069
 15.42491    294.132   9.092
 15.43570    342.516   9.127
 15.44649    392.975   9.163
 15.45728    453.188   9.209
 15.46808    526.252   9.266
 15.47887    613.431   9.335
 15.48966    728.164   9.428
 15.50045    898.990   9.569
 15.51124   1081.205   9.718
 15.52203   1213.560   9.822
 15.53282   1297.354   9.883
 15.54361   1341.463   9.911
 15.55440   1333.246   9.895
 15.56519   1281.721   9.842
 15.57598   1218.525   9.779
 15.58677   1133.710   9.698
 15.59756   1027.010   9.596
 15.60835    949.589   9.520
 15.61914    901.624   9.469
 15.62993    872.778   9.434
 15.64072    830.290   9.388
 15.65151    804.420   9.356
 15.66230    803.203   9.346
 15.67309    803.447   9.337
 15.68388    798.032   9.323
 15.69467    811.584   9.326
 15.70546    822.766   9.327
 15.71625    836.865   9.331
 15.72705    849.470   9.333
 15.73784    838.403   9.315
 15.74863    831.125   9.300
 15.75942    806.794   9.270
 15.77021    784.428   9.241
 15.78100    735.431   9.189
 15.79179    687.045   9.137
 15.80258    647.723   9.093
 15.81337    607.831   9.048
 15.82416    570.074   9.006
 15.83495    514.074   8.946
 15.84574    471.080   8.898
 15.85653    426.091   8.848
 15.86732    401.296   8.817
 15.87811    382.171   8.791
 15.88890    378.215   8.779
 15.89969    352.492   8.747
 15.91048    344.837   8.732
 15.92127    328.349   8.708
 15.93206    302.885   8.676
 15.94285    277.306   8.644
 15.95364    249.230  86.097
 15.96443    252.069  86.045
 15.97522    264.896   8.609
 15.98602    258.445   8.595
 15.99681    287.413  86.143
 16.00760    382.151   8.695
 16.01839    551.854   8.844
 16.02918    754.607   9.020
 16.03997    862.524   9.109
 16.05076    803.268   9.049
 16.06155    589.645   8.849
 16.07234    359.980  86.292
 16.08313    216.960  84.870
 16.09392    146.828  84.128
 16.10471    111.502  83.716
 16.11550    106.852  83.598
 16.12629     92.610  83.389
 16.13708     64.945   8.305
 16.14787     47.224  82.807
 16.15866     38.976  82.656
 16.16945     35.004  82.547
 16.18024     47.689  82.600
 16.19103     56.930  82.620
 16.20182     47.189  82.457
 16.21261     26.570  82.188
 16.22340     25.884  82.114
 16.23420     29.662  82.083
 16.24499     48.446  82.199
 16.25577     52.475  82.172
 16.26657     33.747  81.924
 16.27736     23.900  81.763
 16.28815     18.267  81.643
 16.29894     31.503  81.708
 16.30973     43.324  81.759
 16.32052     35.871  81.623
 16.33131     24.871  81.454
 16.34210     28.183  81.424
 16.35289     41.932  81.496
 16.36368     46.949  81.483
 16.37447     74.420  81.689
 16.38526     83.866  81.720
 16.39605     62.650  81.455
 16.40684     54.350  81.316
 16.41763     39.633  81.114
 16.42842     18.639  80.852
 16.43921     22.599  80.833
 16.45000     43.541   8.098
 16.46079     46.834  80.955
 16.47158     37.608  80.810
 16.48237     27.341  80.654
 16.49317     31.325  80.638
 16.50396     55.522   8.082
 16.51475     59.813  80.807
 16.52554     78.639  80.936
 16.53633    132.377  81.401
 16.54712    211.660  82.107
 16.55791    309.649  82.983
 16.56870    374.634  83.542
 16.57949    395.643  83.687
 16.59028    397.758  83.656
 16.60107    382.384  83.462
 16.61186    361.904   8.322
 16.62265    307.315  82.660
 16.63344    223.817  81.822
 16.64423    164.841  81.211
 16.65502    127.575  80.806
 16.66581    102.126  80.515
 16.67660     93.159  80.382
 16.68739     82.998  80.238
 16.69818     91.154  80.271
 16.70897    136.208  80.660
 16.71976    201.547  81.240
 16.73055    294.741   8.208
 16.74134    388.993  82.917
 16.75214    428.330  83.240
 16.76293    366.549  82.622
 16.77372    239.598  81.386
 16.78451    135.411  80.351
 16.79530     95.474  79.927
 16.80609     72.678  79.666
 16.81688     35.954  79.271
 16.82767     22.513  79.101
 16.83846     68.070  79.503
 16.84925    125.334  80.015
 16.86004    169.653  80.401
 16.87083    199.367  80.646
 16.88162    180.947  80.433
 16.89241    140.761  80.013
 16.90320     73.904  79.334
 16.91399      7.916  78.660
 16.92478    -33.347  78.223
 16.93557    -28.440  78.236
 16.94636     -2.807  78.451
 16.95715      4.210  78.485
 16.96794     -6.899  78.344
 16.97874     -1.201  78.366
 16.98953      5.723   7.840
 17.00032    -10.746  78.208
 17.01111    -20.383  78.083
 17.02190    -40.892  77.852
 17.03269    -64.256  77.593
 17.04348    -43.880  77.761
 17.05427    -20.243  77.961
 17.06506    -23.611  77.899
 17.07585    -32.799  77.780
 17.08664    -39.856  77.683
 17.09743    -35.784  77.694
 17.10822    -27.893  77.743
 17.11901    -38.962  77.607
 17.12980    -47.246  77.499
 17.14059    -54.738  77.400
 17.15138    -58.911  77.333
 17.16217    -50.002  77.393
 17.17296    -37.784   7.749
 17.18375    -23.355   7.760
 17.19454    -26.941  77.541
 17.20533    -23.143  77.553
 17.21612    -16.434  77.593
 17.22691    -27.376  77.463
 17.23770    -19.479  77.516
 17.24849    -32.373  77.368
 17.25928    -36.671  77.304
 17.27008    -24.021  77.403
 17.28087    -24.526  77.376
 17.29166    -21.910  77.379
 17.30245    -20.487   7.737
 17.31324     -2.425  77.524
 17.32403      0.727  77.533
 17.33482    -22.072  77.293
 17.34561    -17.146  77.320
 17.35640     21.735  77.673
 17.36719     77.019  78.180
 17.37798    115.398  78.524
 17.38877    172.965  79.046
 17.39956    297.088  80.182
 17.41035    492.096  81.945
 17.42114    695.822  83.746
 17.43193    755.251  84.249
 17.44272    631.374  83.133
 17.45351    428.554  81.290
 17.46430    247.926  79.612
 17.47509    148.232  78.664
 17.48588     78.331  77.988
 17.49667     33.733  77.548
 17.50746     37.372  77.566
 17.51825     43.720  77.610
 17.52905     11.475  77.288
 17.53984    -15.389  77.016
 17.55063    -17.599  76.979
 17.56142      4.237  77.172
 17.57221      0.783  77.124
 17.58300    -17.135  76.939
 17.59379      2.862  77.114
 17.60458     22.282  77.284
 17.61537     40.656  77.444
 17.62616     55.639  77.571
 17.63695     55.071  77.551
 17.64774     52.790  77.516
 17.65853     67.074  77.636
 17.66932     82.367   7.777
 17.68011     96.709  77.887
 17.69090     90.913  77.819
 17.70169     90.432  77.802
 17.71248    123.598  78.098
 17.72327    179.267  78.602
 17.73406    221.631  78.979
 17.74485    263.936  79.354
 17.75565    308.120  79.744
 17.76644    359.180  80.193
 17.77723    435.924  80.871
 17.78802    541.545  81.797
 17.79881    642.020  82.668
 17.80960    807.866  84.092
 17.82039   1065.105  86.261
 17.83118   1253.107   8.781
 17.84197   1377.877   8.881
 17.85276   1458.612   8.945
 17.86355   1552.272   9.018
 17.87434   1830.019   9.236
 17.88513   2342.654   9.625
 17.89592   3265.635  10.290
 17.90671   4668.214  11.226
 17.91750   6106.225  12.109
 17.92829   6845.935  12.537
 17.93908   6354.288  12.249
 17.94987   4938.592  11.387
 17.96066   3429.795  10.391
 17.97145   2380.616   9.638
 17.98224   1828.460   9.217
 17.99303   1544.209   8.991
 18.00382   1398.438   8.873
 18.01462   1299.942   8.792
 18.02541   1153.918   8.671
 18.03620    964.353  85.119
 18.04699    789.349  83.625
 18.05778    656.584  82.472
 18.06857    549.942  81.533
 18.07936    477.150  80.883
 18.09015    440.991  80.552
 18.10094    389.457   8.008
 18.11173    345.633  79.683
 18.12252    349.751  79.708
 18.13331    357.687  79.767
 18.14410    367.917  79.846
 18.15489    396.830  80.091
 18.16568    435.505  80.421
 18.17647    492.605  80.910
 18.18726    568.011  81.554
 18.19805    683.694  82.539
 18.20884    915.423  84.486
 18.21963   1297.292   8.760
 18.23042   2001.236   9.309
 18.24122   3146.896  10.138
 18.25201   4527.001  11.053
 18.26279   5288.746  11.526
 18.27359   4736.337  11.181
 18.28438   3360.681  10.276
 18.29517   2065.494   9.346
 18.30596   1305.815   8.755
 18.31675    880.617  84.055
 18.32754    603.685  81.697
 18.33833    421.357  80.103
 18.34912    323.429  79.230
 18.35991    248.231  78.550
 18.37070    182.865  77.954
 18.38149    133.441  77.497
 18.39228     95.091  77.139
 18.40307     72.769  76.925
 18.41386     22.910  76.460
 18.42465     -5.946  76.185
 18.43544     14.650  76.362
 18.44623     29.517   7.649
 18.45702     19.593  76.384
 18.46781    -12.359  76.081
 18.47860    -31.400  75.895
 18.48939    -25.375  75.939
 18.50018     -6.961  76.095
 18.51097    -10.442  76.052
 18.52176    -13.801  76.009
 18.53256    -18.128  75.957
 18.54335     10.617  76.207
 18.55414     86.884  76.884
 18.56493    189.928   7.779
 18.57572    293.228   7.869
 18.58651    385.606  79.486
 18.59730    433.824  79.889
 18.60809    388.686  79.484
 18.61888    293.148  78.635
 18.62967    215.420  77.937
 18.64046    175.828  77.572
 18.65125    120.473  77.064
 18.66204     82.731  76.713
 18.67283     96.265   7.682
 18.68362    108.907  76.918
 18.69441    112.152  76.933
 18.70520    132.240  77.097
 18.71599    226.312  77.915
 18.72678    374.206   7.919
 18.73757    552.969  80.706
 18.74836    662.829  81.616
 18.75915    619.671  81.236
 18.76994    462.089  79.881
 18.78073    299.161  78.458
 18.79153    214.578  77.701
 18.80232    171.892  77.309
 18.81311    129.517  76.918
 18.82390    118.823  76.807
 18.83469    141.137  76.988
 18.84548    157.275  77.114
 18.85627    196.898  77.446
 18.86706    284.904  78.198
 18.87785    402.701  79.197
 18.88864    553.683  80.464
 18.89943    660.963  81.345
 18.91022    644.666  81.190
 18.92101    556.815  80.433
 18.93180    456.228  79.562
 18.94259    408.026  79.132
 18.95338    432.509   7.932
 18.96417    541.967  80.230
 18.97496    778.673  82.181
 18.98575   1161.985   8.525
 18.99654   1646.393   8.898
 19.00733   2029.813   9.182
 19.01813   2090.718   9.224
 19.02892   1775.890   8.989
 19.03971   1325.339  86.424
 19.05050    942.747  83.368
 19.06129    704.431  81.400
 19.07208    578.018   8.033
 19.08287    522.072  79.837
 19.09366    516.050  79.765
 19.10445    587.768  80.345
 19.11524    725.153  81.461
 19.12603    851.105  82.469
 19.13682    879.868  82.679
 19.14761    769.602  81.758
 19.15840    597.032  80.311
 19.16919    479.700  79.306
 19.17998    427.435  78.841
 19.19077    387.822  78.483
 19.20156    374.553  78.347
 19.21235    394.367  78.493
 19.22314    420.850  78.695
 19.23393    450.661  78.924
 19.24472    468.001  79.047
 19.25551    507.603  79.356
 19.26630    570.505  79.857
 19.27710    629.609  80.324
 19.28789    715.103  81.003
 19.29868    847.821  82.059
 19.30946   1039.130  83.566
 19.32026   1291.654  85.520
 19.33105   1649.574   8.822
 19.34184   2187.465   9.214
 19.35263   3065.700   9.822
 19.36342   4797.834  10.923
 19.37421   9364.378  13.401
 19.38500  24388.854  19.440
 19.39579  62988.565  29.786
 19.40658 135664.088  42.958
 19.41737 208868.693  53.003
 19.42816 229586.168  55.504
 19.43895 179236.545  49.151
 19.44974  99273.791  36.906
 19.46053  42410.391  24.766
 19.47132  15854.193  16.245
 19.48211   6886.506  12.080
 19.49290   3933.249  10.348
 19.50370   2865.515   9.643
 19.51448   2503.942   9.391
 19.52527   2668.159   9.502
 19.53607   3258.932   9.898
 19.54686   4070.128  10.417
 19.55765   4495.524  10.678
 19.56844   4103.755  10.432
 19.57923   3142.178   9.807
 19.59002   2162.447   9.128
 19.60081   1474.908  86.196
 19.61160   1097.102  83.258
 19.62239    869.164  81.425
 19.63318    738.348  80.343
 19.64397    663.634  79.706
 19.65476    598.564  79.145
 19.66555    536.842  78.608
 19.67634    487.538   7.817
 19.68713    455.699  77.878
 19.69792    430.287  77.637
 19.70871    396.814  77.329
 19.71950    339.503  76.819
 19.73029    294.548   7.641
 19.74108    299.324   7.642
 19.75187    292.448  76.336
 19.76266    245.169  75.906
 19.77345    236.252  75.801
 19.78424    205.562  75.511
 19.79504    167.129  75.153
 19.80583    177.284  75.212
 19.81662    169.145  75.114
 19.82741    137.138  74.810
 19.83820    123.851   7.467
 19.84899    112.727  74.542
 19.85978     97.239  74.380
 19.87057     96.208  74.343
 19.88136    108.067   7.442
 19.89215     92.428  74.253
 19.90294     75.569   7.408
 19.91373     64.801  73.956
 19.92452     65.910  73.937
 19.93531     47.982  73.753
 19.94610     14.683  73.434
 19.95689     30.724  73.545
 19.96768     70.340   7.386
 19.97847     74.441  73.867
 19.98926     46.334  73.595
 20.00005     38.695  73.499
 20.01084     50.712  73.575
 20.02163     70.676  73.719
 20.03242     75.100  73.728
 20.04322     57.081   7.354
 20.05401     45.116  73.411
 20.06480     57.854  73.492
 20.07559     49.809  73.394
 20.08638     17.367  73.084
 20.09717     20.547  73.082
 20.10796      5.665  72.924
 20.11875     -5.017  72.802
 20.12954     -4.706  72.776
 20.14033     -5.957  72.737
 20.15112     -1.914  72.743
 20.16191     -2.944  72.706
 20.17270    -19.155  72.536
 20.18349    -43.831   7.229
 20.19428    -48.988  72.218
 20.20507    -45.651  72.219
 20.21586    -22.183   7.240
 20.22665    -12.200  72.454
 20.23744    -22.816  72.333
 20.24823    -34.804  72.201
 20.25902    -44.694  72.086
 20.26981    -35.551  72.138
 20.28061    -18.423  72.259
 20.29140    -31.898  72.113
 20.30219    -52.819  71.903
 20.31298    -51.980  71.882
 20.32377    -30.884  72.038
 20.33456    -24.520  72.066
 20.34535    -32.315   7.197
 20.35614    -25.082  72.006
 20.36693    -18.938  72.032
 20.37772     -2.061  72.151
 20.38851     15.500  72.275
 20.39930     31.742  72.388
 20.41009     47.812  72.500
 20.42088     49.330  72.485
 20.43167     59.900  72.549
 20.44246     81.655  72.709
 20.45325     79.916  72.667
 20.46404     78.423  72.627
 20.47483     98.352  72.771
 20.48562    117.888   7.291
 20.49641    124.407  72.940
 20.50720    127.158  72.937
 20.51799    139.586  73.016
 20.52878    172.619  73.270
 20.53958    209.273  73.554
 20.55036    241.110  73.795
 20.56115    283.414  74.124
 20.57194    386.154  74.951
 20.58274    525.202  76.065
 20.59353    642.574  76.987
 20.60432    700.678  77.426
 20.61511    661.784  77.088
 20.62590    563.904  76.274
 20.63669    454.981  75.362
 20.64748    387.448  74.781
 20.65827    364.941  74.570
 20.66906    377.214   7.465
 20.67985    407.361  74.870
 20.69064    450.069  75.196
 20.70143    499.280  75.572
 20.71222    540.169  75.879
 20.72301    592.414  76.277
 20.73380    675.673  76.919
 20.74459    786.205  77.772
 20.75538    880.386  78.486
 20.76617    984.284  79.269
 20.77696   1091.668  80.070
 20.78775   1233.709  81.124
 20.79855   1435.518  82.607
 20.80934   1613.003  83.886
 20.82013   1787.023  85.119
 20.83092   1942.891  86.205
 20.84171   2064.764   8.704
 20.85250   2164.533   8.771
 20.86329   2259.399   8.834
 20.87408   2363.053   8.903
 20.88487   2571.732   9.042
 20.89566   3017.888   9.335
 20.90645   3880.848   9.879
 20.91724   5457.399  10.803
 20.92803   7562.647  11.925
 20.93882   9396.740  12.822
 20.94961  10005.409  13.104
 20.96040   8755.619  12.508
 20.97119   6771.180  11.502
 20.98198   5267.881  10.678
 20.99277   4270.982  10.093
 21.00356   3765.076   9.782
 21.01435   3523.797   9.629
 21.02514   3528.296   9.630
 21.03593   3725.386   9.750
 21.04672   4092.596   9.972
 21.05752   4597.571  10.271
 21.06831   5116.514  10.568
 21.07910   5523.353  10.795
 21.08989   5973.312  11.041
 21.10068   7067.073  11.619
 21.11147   9393.111  12.764
 21.12226  12462.823  14.134
 21.13305  15039.000  15.187
 21.14384  14229.854  14.859
 21.15463  10725.591  13.364
 21.16542   7673.727  11.911
 21.17621   5528.520  10.773
 21.18700   4223.900  10.018
 21.19779   3469.404   9.553
 21.20858   2969.512   9.232
 21.21937   2616.180   8.998
 21.23016   2369.001   8.830
 21.24095   2129.281   8.664
 21.25174   1902.741  85.044
 21.26253   1695.638  83.558
 21.27332   1491.526  82.069
 21.28411   1305.960  80.691
 21.29490   1156.988   7.957
 21.30570   1047.890  78.728
 21.31649    936.817  77.867
 21.32728    837.044  77.085
 21.33807    746.939  76.372
 21.34886    667.432   7.574
 21.35965    592.320  75.130
 21.37044    509.892  74.461
 21.38123    464.788  74.088
 21.39202    425.271  73.758
 21.40281    383.899  73.412
 21.41360    363.613  73.235
 21.42439    354.291  73.148
 21.43518    320.028  72.858
 21.44597    284.540  72.558
 21.45676    254.747  72.303
 21.46755    208.778  71.916
 21.47834    184.107  71.702
 21.48913    170.887  71.583
 21.49992    140.683  71.323
 21.51071    120.720  71.148
 21.52150    101.276  70.977
 21.53229    106.087  71.008
 21.54309    136.071  71.247
 21.55388    128.636  71.176
 21.56467    108.731  71.003
 21.57546     99.102  70.914
 21.58625    104.108   7.095
 21.59704    167.341  71.460
 21.60783    284.838  72.410
 21.61862    436.306  73.618
 21.62941    540.391  74.433
 21.64020    545.312  74.463
 21.65099    453.253  73.726
 21.66178    296.195  72.461
 21.67257    194.558  71.628
 21.68336    168.128  71.405
 21.69415    177.645  71.475
 21.70494    237.466  71.955
 21.71573    363.780  72.966
 21.72652    435.538  73.530
 21.73731    393.623  73.189
 21.74810    308.987  72.505
 21.75889    218.045  71.765
 21.76968    137.440  71.102
 21.78047     81.048  70.633
 21.79126     26.483  70.177
 21.80205      5.271  69.996
 21.81284     22.067  70.131
 21.82363     16.182  70.077
 21.83442      4.603  69.977
 21.84522     16.595  70.071
 21.85601     14.627  70.051
 21.86680    -22.057   6.974
 21.87759    -18.605  69.767
 21.88838     14.581  70.038
 21.89917     19.422  70.074
 21.90996      7.319  69.970
 21.92075     18.422   7.006
 21.93154     40.579  70.237
 21.94233     52.267  70.329
 21.95312     50.229  70.309
 21.96391     25.363  70.101
 21.97470      4.965  69.930
 21.98549     11.360  69.979
 21.99628     16.653   7.002
 22.00707     45.397  70.252
 22.01786     75.478  70.495
 22.02865     63.795  70.396
 22.03944     57.013  70.338
 22.05023     58.395  70.347
 22.06103     73.419  70.466
 22.07182    102.364  70.698
 22.08261    121.268  70.848
 22.09340    146.893  71.052
 22.10419    166.594  71.207
 22.11498    176.802   7.129
 22.12577    206.657  71.522
 22.13656    232.805  71.728
 22.14735    257.070   7.192
 22.15814    267.590  71.998
 22.16893    275.700  72.059
 22.17972    320.853  72.412
 22.19051    354.756  72.674
 22.20130    357.587  72.693
 22.21209    390.052  72.943
 22.22288    452.606  73.426
 22.23367    500.850  73.794
 22.24446    536.529   7.406
 22.25525    560.580  74.244
 22.26604    601.107   7.455
 22.27683    652.235  74.933
 22.28762    683.876  75.167
 22.29841    739.952  75.584
 22.30920    792.715  75.973
 22.32000    819.966  76.171
 22.33079    834.921  76.277
 22.34158    835.727  76.277
 22.35236    856.485  76.426
 22.36316    849.855  76.371
 22.37395    797.868  75.980
 22.38474    762.701  75.713
 22.39553    753.894  75.643
 22.40632    738.679  75.524
 22.41711    699.433  75.225
 22.42790    646.322  74.821
 22.43869    620.562  74.622
 22.44948    621.890  74.627
 22.46027    607.218  74.512
 22.47106    575.211  74.265
 22.48185    560.431  74.148
 22.49264    605.913  74.486
 22.50343    680.148  75.038
 22.51422    734.623  75.438
 22.52501    757.239  75.600
 22.53580    754.530   7.557
 22.54659    717.783  75.294
 22.55738    618.454  74.547
 22.56817    538.082  73.935
 22.57896    506.109  73.687
 22.58976    475.088  73.446
 22.60055    464.832  73.362
 22.61134    506.103  73.670
 22.62213    545.466  73.961
 22.63292    561.818  74.078
 22.64371    588.632  74.272
 22.65450    617.729  74.483
 22.66529    675.742  74.909
 22.67608    782.027   7.569
 22.68687    914.155  76.643
 22.69766   1074.421  77.787
 22.70845   1290.755  79.308
 22.71924   1640.831  81.711
 22.73003   2224.149  85.569
 22.74082   3134.438   9.126
 22.75161   4701.684  10.032
 22.76240   8339.184  11.869
 22.77319  19365.126  16.214
 22.78398  50062.628  24.544
 22.79477 109155.342  35.434
 22.80557 181632.838  45.343
 22.81636 221324.037  49.933
 22.82715 198091.817  47.281
 22.83793 126764.572  38.043
 22.84873  60955.091  26.846
 22.85952  24102.743  17.723
 22.87031  10053.966  12.617
 22.88110   5113.932  10.233
 22.89189   3243.728   9.170
 22.90268   2360.371  86.224
 22.91347   1896.478  83.198
 22.92426   1614.875  81.303
 22.93505   1432.841  80.050
 22.94584   1324.962  79.293
 22.95663   1289.784  79.035
 22.96742   1324.718  79.263
 22.97821   1426.701  79.951
 22.98900   1640.093  81.386
 22.99979   2035.690  83.990
 23.01058   2707.272   8.824
 23.02137   3410.574   9.248
 23.03216   3753.824   9.447
 23.04295   3560.486   9.332
 23.05374   2922.925   8.949
 23.06453   2232.931  85.162
 23.07532   1870.769  82.792
 23.08611   1677.812  81.494
 23.09690   1604.828  80.987
 23.10770   1598.598  80.928
 23.11849   1628.517  81.111
 23.12928   1726.356  81.747
 23.14007   1887.204  82.792
 23.15086   2073.255  83.986
 23.16165   2308.011  85.471
 23.17244   2606.615   8.733
 23.18323   3030.623   8.990
 23.19402   3698.943   9.383
 23.20481   4807.514  10.000
 23.21560   6637.248  10.945
 23.22639   8938.207  12.027
 23.23718  11150.387  12.981
 23.24797  12113.826  13.373
 23.25876  10947.969  12.890
 23.26955   8288.415  11.718
 23.28034   5769.159  10.490
 23.29113   4005.845   9.536
 23.30192   3022.471   8.960
 23.31271   2434.829  85.968
 23.32351   2032.445  83.383
 23.33430   1725.530  81.352
 23.34509   1469.015   7.961
 23.35588   1284.062  78.330
 23.36667   1117.180  77.152
 23.37746    959.012  76.019
 23.38825    815.547  74.975
 23.39904    719.677  74.262
 23.40983    641.580  73.672
 23.42062    540.571  72.909
 23.43141    463.451  72.316
 23.44220    412.791  71.916
 23.45299    357.130   7.148
 23.46378    300.577  71.027
 23.47457    260.671  70.701
 23.48536    224.738  70.404
 23.49615    190.996  70.122
 23.50694    143.306  69.732
 23.51773    104.351  69.408
 23.52852     83.647  69.222
 23.53931     63.410  69.040
 23.55010     49.997  68.910
 23.56089     25.096  68.690
 23.57168      1.442  68.479
 23.58248    -13.554  68.335
 23.59327    -14.541  68.300
 23.60405    -21.329  68.219
 23.61484    -41.136  68.036
 23.62564    -50.913  67.930
 23.63643    -36.906  68.011
 23.64722    -19.871  68.114
 23.65801    -28.997  68.013
 23.66880    -31.263  67.966
 23.67959    -15.295  68.060
 23.69038     28.788  68.371
 23.70117     63.504  68.608
 23.71196     89.610  68.778
 23.72275    122.816   6.900
 23.73354    174.041  69.360
 23.74433    293.010  70.228
 23.75512    430.656  71.223
 23.76591    626.420  72.627
 23.77670   1004.218  75.288
 23.78749   1786.690  80.549
 23.79828   3839.616   9.298
 23.80907   9747.075  12.191
 23.81986  22362.952  16.772
 23.83065  41744.358  22.024
 23.84144  59648.969  25.944
 23.85224  64898.367  26.979
 23.86303  52064.140  24.345
 23.87382  30826.152  19.218
 23.88461  14511.730  14.068
 23.89540   6754.506  10.789
 23.90619   3889.520   9.289
 23.91698   2617.467  85.375
 23.92777   1778.408  80.022
 23.93856   1247.670   7.643
 23.94935    874.340  73.793
 23.96014    595.258  71.749
 23.97093    399.061  70.266
 23.98172    248.584  69.098
 23.99251    162.405  68.404
 24.00330    128.439  68.104
 24.01409    103.518  67.872
 24.02488     62.934  67.519
 24.03567      6.364  67.040
 24.04646    -18.446  66.806
 24.05725    -24.941  66.713
 24.06805    -47.732  66.494
 24.07884    -55.998   6.639
 24.08962    -26.578  66.574
 24.10041    -10.614   6.666
 24.11121    -29.670  66.464
 24.12200    -18.004  66.512
 24.13279     19.927  66.764
 24.14358     30.939  66.806
 24.15437     52.834  66.931
 24.16516    100.997  67.259
 24.17595    196.326   6.794
 24.18674    344.749  69.022
 24.19753    520.761   7.028
 24.20832    722.602  71.709
 24.21911    903.615  72.958
 24.22990    968.281   7.337
 24.24069    913.094   7.294
 24.25148    761.281  71.807
 24.26227    577.369  70.428
 24.27306    449.599  69.441
 24.28385    368.626  68.791
 24.29464    323.181  68.403
 24.30543    333.773  68.436
 24.31622    375.865  68.704
 24.32701    454.520  69.244
 24.33780    521.961  69.695
 24.34859    532.917  69.728
 24.35938    506.484   6.949
 24.37018    459.998  69.094
 24.38097    425.380  68.788
 24.39176    429.836  68.773
 24.40255    519.205  69.388
 24.41334    664.922  70.407
 24.42413    920.908  72.196
 24.43492   1396.624  75.444
 24.44571   1898.232  78.724
 24.45650   2001.400  79.343
 24.46729   1727.386  77.511
 24.47808   1329.207  74.794
 24.48887    991.418  72.403
 24.49966    733.567  70.514
 24.51045    530.243  68.978
 24.52124    397.561  67.940
 24.53203    311.866  67.245
 24.54282    255.012  66.762
 24.55361    237.950  66.581
 24.56440    223.588  66.421
 24.57519    195.395  66.153
 24.58599    169.559  65.903
 24.59678    135.888   6.559
 24.60757    109.571  65.337
 24.61836    114.801  65.326
 24.62915    125.845  65.360
 24.63994    127.000  65.317
 24.65073    146.451  65.416
 24.66152    190.206  65.702
 24.67231    211.273  65.812
 24.68310    196.624  65.648
 24.69389    204.052  65.653
 24.70468    226.228  65.772
 24.71547    249.112   6.590
 24.72626    272.913  66.026
 24.73705    293.730   6.613
 24.74784    341.894  66.447
 24.75863    410.302  66.913
 24.76942    469.367  67.304
 24.78021    525.163  67.669
 24.79100    588.542  68.088
 24.80179    665.158  68.600
 24.81258    750.899  69.175
 24.82337    842.967  69.790
 24.83416    958.990  70.569
 24.84495   1087.346  71.426
 24.85574   1214.493  72.264
 24.86653   1366.948   7.326
 24.87732   1601.176  74.801
 24.88812   1877.315  76.579
 24.89891   2203.057  78.632
 24.90970   2720.951  81.814
 24.92049   3578.627   8.685
 24.93128   4897.683   9.410
 24.94207   6773.849  10.354
 24.95286   8466.601  11.136
 24.96365   8935.766  11.339
 24.97444   8121.450  10.970
 24.98523   6354.618  10.130
 24.99602   4615.182   9.230
 25.00681   3548.003  86.295
 25.01760   2986.031  82.940
 25.02839   2722.579   8.130
 25.03918   2680.184  80.988
 25.04997   2804.584  81.701
 25.06076   3182.952  83.925
 25.07155   3931.165   8.820
 25.08234   5132.605   9.468
 25.09313   6292.381  10.053
 25.10392   6590.439  10.194
 25.11472   5647.042   9.720
 25.12551   4282.776   8.992
 25.13630   3076.159   8.296
 25.14709   2323.805  78.298
 25.15788   1924.562  75.685
 25.16867   1699.535  74.153
 25.17946   1567.979   7.322
 25.19025   1522.671  72.871
 25.20104   1491.548  72.613
 25.21183   1447.334  72.266
 25.22262   1332.092  71.428
 25.23341   1180.435   7.033
 25.24420   1065.990  69.474
 25.25499    982.165  68.831
 25.26578    924.433  68.371
 25.27657    916.648   6.827
 25.28736    965.541  68.575
 25.29815   1020.346  68.922
 25.30894   1201.716  70.160
 25.31973   1567.463  72.632
 25.33052   1991.561  75.402
 25.34131   2315.622   7.744
 25.35210   2318.437  77.414
 25.36289   1929.486  74.867
 25.37369   1424.847  71.444
 25.38448   1050.977  68.789
 25.39527    800.385  66.938
 25.40606    659.690  65.859
 25.41685    556.350  65.044
 25.42764    465.080  64.311
 25.43843    428.129  63.987
 25.44922    427.846  63.943
 25.46001    410.403  63.768
 25.47080    363.346  63.365
 25.48159    315.596  62.955
 25.49238    310.011  62.871
 25.50317    316.921  62.884
 25.51396    293.804  62.664
 25.52475    274.644  62.475
 25.53554    328.836  62.856
 25.54633    373.355  63.160
 25.55712    401.135   6.333
 25.56791    456.213  63.717
 25.57870    443.477  63.582
 25.58949    376.000  63.026
 25.60028    319.768  62.554
 25.61107    287.203  62.264
 25.62186    316.441   6.245
 25.63266    387.270  62.965
 25.64345    473.696  63.590
 25.65424    585.097  64.396
 25.66503    695.984  65.189
 25.67582    719.987  65.332
 25.68661    660.759  64.857
 25.69740    561.321  64.078
 25.70819    433.200  63.071
 25.71898    326.292   6.221
 25.72977    264.988  61.703
 25.74056    233.814  61.426
 25.75135    207.502  61.187
 25.76214    189.774  61.015
 25.77293    180.661  60.911
 25.78372    200.059  61.033
 25.79451    219.757  61.157
 25.80530    220.631  61.133
 25.81609    237.018  61.231
 25.82688    281.104  61.546
 25.83767    350.249  62.054
 25.84847    409.934  62.484
 25.85926    432.148  62.626
 25.87005    400.064  62.351
 25.88084    354.499  61.972
 25.89163    309.385  61.595
 25.90242    281.361  61.350
 25.91321    273.363  61.260
 25.92400    270.847  61.214
 25.93479    285.008  61.299
 25.94558    306.921   6.144
 25.95637    318.896  61.512
 25.96716    335.570  61.616
 25.97795    380.558  61.939
 25.98874    438.016  62.356
 25.99953    498.272  62.791
 26.01032    580.868   6.339
 26.02111    711.112  64.339
 26.03190    969.874  66.202
 26.04269   1401.493  69.211
 26.05348   2064.475  73.602
 26.06427   2822.759   7.832
 26.07506   3316.503  81.237
 26.08585   3097.349  79.922
 26.09664   2382.037  75.533
 26.10743   1629.248  70.626
 26.11822   1128.964   6.716
 26.12901    843.710   6.510
 26.13980    688.724  63.942
 26.15060    649.389  63.631
 26.16139    609.682  63.317
 26.17218    600.170  63.228
 26.18297    577.627  63.041
 26.19376    507.430   6.250
 26.20455    421.353  61.825
 26.21534    325.777  61.075
 26.22613    282.857   6.073
 26.23692    246.939   6.043
 26.24771    214.636   6.016
 26.25850    201.208  60.045
 26.26929    196.395  59.993
 26.28008    200.101  60.008
 26.29087    181.328  59.847
 26.30166    149.084  59.580
 26.31245    167.454  59.712
 26.32324    174.325  59.754
 26.33403    164.004  59.661
 26.34482    142.789  59.482
 26.35561    136.480  59.421
 26.36640    156.102  59.564
 26.37720    146.445  59.478
 26.38799    145.561  59.460
 26.39878    207.580  59.937
 26.40957    277.644   6.047
 26.42036    308.889  60.703
 26.43115    366.020  61.131
 26.44194    392.089  61.321
 26.45273    338.159  60.900
 26.46352    254.561   6.025
 26.47431    176.110  59.627
 26.48510     99.612  59.018
 26.49589     50.192  58.619
 26.50668     51.988  58.626
 26.51747     26.454  58.416
 26.52826    -11.999  58.103
 26.53905    -26.208  57.983
 26.54984    -23.653  57.998
 26.56063     -7.041  58.125
 26.57142    -12.958  58.073
 26.58221    -18.470  58.023
 26.59300    -26.460   5.795
 26.60379    -36.790  57.867
 26.61458    -42.783  57.815
 26.62537    -32.220  57.895
 26.63617    -29.509  57.913
 26.64695    -41.030  57.817
 26.65774    -57.335  57.683
 26.66854    -57.020  57.682
 26.67933    -39.546  57.819
 26.69012    -43.315  57.786
 26.70091    -53.777  57.700
 26.71170    -24.047   5.793
 26.72249     57.784  58.580
 26.73328    146.918  59.276
 26.74407    250.758   6.008
 26.75486    344.127   6.078
 26.76565    331.325   6.068
 26.77644    222.790  59.852
 26.78723    120.021  59.054
 26.79802     48.555  58.492
 26.80881     28.659  58.334
 26.81960     45.500  58.465
 26.83039     91.579  58.824
 26.84118    158.199  59.341
 26.85197    207.569  59.719
 26.86276    249.491   6.004
 26.87355    266.356   6.017
 26.88434    247.755  60.022
 26.89514    202.085  59.671
 26.90593    148.969  59.260
 26.91672     83.229  58.749
 26.92751     48.199  58.474
 26.93830     56.197   5.854
 26.94909     85.844  58.766
 26.95988    129.548  59.104
 26.97067    160.582  59.342
 26.98146    184.293  59.523
 26.99225    157.452  59.316
 27.00304    107.858  58.932
 27.01383     74.127  58.670
 27.02462     38.635  58.393
 27.03541     54.584  58.516
 27.04620     50.825  58.486
 27.05699     31.730  58.336
 27.06778     57.800  58.538
 27.07857     85.260  58.750
 27.08936     75.882  58.676
 27.10015     64.047   5.858
 27.11095     50.925  58.481
 27.12174     57.566  58.531
 27.13252     59.386   5.854
 27.14331     33.842  58.344
 27.15411      3.869  58.110
 27.16490      3.564  58.106
 27.17569     29.691   5.831
 27.18648      5.449  58.118
 27.19727    -23.217  57.893
 27.20806    -15.975  57.948
 27.21885    -30.726  57.831
 27.22964    -37.133  57.779
 27.24043    -23.863  57.881
 27.25122    -25.290  57.867
 27.26201    -33.530  57.801
 27.27280    -18.562  57.915
 27.28359    -19.420  57.906
 27.29438    -21.084  57.890
 27.30517    -13.951  57.943
 27.31596    -33.976  57.784
 27.32675    -31.462  57.801
 27.33754     -3.882  58.011
 27.34833     13.693   5.814
 27.35912     17.458  58.169
 27.36991     26.456  58.235
 27.38070     69.449  58.561
 27.39149     93.188  58.738
 27.40228     79.136   5.863
 27.41308    108.629  58.846
 27.42387    135.440   5.904
 27.43466    139.339  59.069
 27.44545    161.000  59.227
 27.45624    192.581  59.459
 27.46703    204.270  59.541
 27.47782    237.202  59.781
 27.48861    298.988  60.234
 27.49940    340.734  60.536
 27.51019    408.258  61.024
 27.52098    494.817  61.646
 27.53177    641.834  62.692
 27.54256    859.369  64.211
 27.55335   1349.188  67.513
 27.56414   2771.210  76.306
 27.57493   6645.618   9.627
 27.58572  13658.728  12.451
 27.59651  21965.380  15.127
 27.60730  26533.979  16.411
 27.61809  23838.305  15.660
 27.62888  15597.836  13.114
 27.63968   7763.977  10.119
 27.65047   3368.653  79.596
 27.66126   1534.688  68.608
 27.67205    831.902   6.389
 27.68284    568.992  62.032
 27.69363    455.174  61.203
 27.70442    406.095  60.835
 27.71521    382.877  60.654
 27.72600    393.927  60.723
 27.73679    449.020   6.111
 27.74758    506.438  61.511
 27.75837    591.527  62.106
 27.76916    661.059  62.585
 27.77995    685.160  62.741
 27.79074    696.573   6.281
 27.80153    698.937  62.810
 27.81232    745.515  63.122
 27.82311    888.733  64.098
 27.83390   1157.894  65.906
 27.84469   1396.585   6.746
 27.85548   1454.369  67.824
 27.86627   1294.641  66.765
 27.87706   1035.801  65.022
 27.88785    858.235  63.795
 27.89864    821.742  63.528
 27.90943    919.496  64.183
 27.92022   1052.348  65.068
 27.93102   1066.988  65.149
 27.94181    930.707  64.209
 27.95260    753.680  62.972
 27.96339    623.972  62.047
 27.97418    475.955  60.976
 27.98497    360.051  60.122
 27.99576    295.520  59.633
 28.00655    225.653  59.102
 28.01734    165.519  58.638
 28.02813    145.351  58.470
 28.03892    136.661  58.387
 28.04971    154.907   5.851
 28.06050    168.530  58.589
 28.07129    149.359  58.428
 28.08208    144.126  58.370
 28.09287    123.505  58.197
 28.10366     86.009  57.898
 28.11445     67.189  57.737
 28.12524     58.940  57.656
 28.13603     67.999  57.705
 28.14682     65.908  57.670
 28.15762     51.020  57.538
 28.16841     18.910  57.276
 28.17919     13.720  57.217
 28.18999     15.896  57.214
 28.20078    -14.499   5.696
 28.21157    -15.241  56.938
 28.22236      5.309  57.074
 28.23315      6.827  57.066
 28.24394      7.810  57.053
 28.25473     16.963  57.102
 28.26552     -4.115  56.922
 28.27631    -12.119  56.841
 28.28710     -5.735  56.870
 28.29789      0.916   5.690
 28.30868     14.431  56.982
 28.31947     25.386  57.044
 28.33026     14.704  56.943
 28.34105     -7.465  56.755
 28.35184     -4.595  56.756
 28.36263    -15.728  56.651
 28.37343    -11.740  56.661
 28.38421     20.801  56.888
 28.39500     32.126  56.953
 28.40579     37.527  56.973
 28.41659     53.472  57.073
 28.42738     29.041  56.869
 28.43817     -6.180  56.583
 28.44896    -23.939  56.428
 28.45975    -29.258  56.368
 28.47054    -23.940  56.388
 28.48133     -4.893  56.513
 28.49212    -29.797  56.305
 28.50291    -45.738  56.164
 28.51370    -25.727  56.297
 28.52449    -32.772  56.225
 28.53528    -40.419  56.148
 28.54607    -38.205  56.146
 28.55686    -31.465  56.179
 28.56765    -33.144   5.615
 28.57844    -52.892  55.979
 28.58923    -61.291  55.897
 28.60002    -35.295  56.078
 28.61081    -28.374  56.113
 28.62160    -14.902  56.198
 28.63239     -4.249  56.262
 28.64318     18.601  56.417
 28.65397     46.295  56.609
 28.66476     59.567   5.669
 28.67556     53.753  56.633
 28.68635     43.872  56.543
 28.69714     21.535  56.360
 28.70793     -3.006   5.616
 28.71872     -1.757  56.155
 28.72951      0.749   5.616
 28.74030      8.566  56.205
 28.75109     22.651  56.297
 28.76188     45.023  56.452
 28.77267     62.709  56.572
 28.78346     83.623  56.716
 28.79425    118.328  56.962
 28.80504    194.729  57.514
 28.81583    201.647  57.553
 28.82662    164.428  57.268
 28.83741    123.540  56.956
 28.84820    108.971  56.838
 28.85899    101.854  56.775
 28.86978     73.313   5.655
 28.88057     61.380  56.456
 28.89136     69.598  56.510
 28.90216     85.828  56.623
 28.91295     89.729  56.645
 28.92374    106.976  56.766
 28.93453    103.524  56.734
 28.94532     83.900   5.658
 28.95611     69.559  56.472
 28.96690     53.205   5.635
 28.97769     51.771  56.331
 28.98848     57.743  56.372
 28.99927     21.723  56.101
 29.01006     -6.864  55.885
 29.02085     24.406  56.118
 29.03164     28.613  56.148
 29.04243     49.561   5.630
 29.05322     51.187  56.316
 29.06401     35.515  56.200
 29.07480     42.555  56.254
 29.08559     26.114   5.613
 29.09638     36.335  56.213
 29.10717     76.422  56.513
 29.11796     82.160  56.559
 29.12875     89.640   5.662
 29.13954    113.933  56.802
 29.15033    161.732  57.158
 29.16112    200.368  57.444
 29.17191    244.905  57.773
 29.18270    238.730  57.735
 29.19350    160.961  57.180
 29.20429    100.981  56.751
 29.21508     88.325  56.668
 29.22587     75.464  56.584
 29.23666     48.939  56.401
 29.24745     26.030  56.244
 29.25824     18.357  56.200
 29.26903     17.654  56.208
 29.27982     20.261  56.241
 29.29061     31.628  56.340
 29.30140     35.430  56.383
 29.31219     12.688  56.232
 29.32298     10.126  56.230
 29.33377      3.267   5.620
 29.34456     -2.807   5.617
 29.35535     -2.143  56.195
 29.36614     -6.853   5.618
 29.37693    -14.995   5.614
 29.38772     12.078  56.360
 29.39851     15.572  56.407
 29.40930      5.770  56.358
 29.42009     -5.776  56.297
 29.43088     21.495  56.520
 29.44168     21.085  56.541
 29.45247     16.630  56.533
 29.46326     24.201  56.614
 29.47405     31.409  56.692
 29.48484     45.421  56.821
 29.49563     41.513  56.820
 29.50642     45.526  56.877
 29.51721     89.656  57.223
 29.52800    145.931  57.653
 29.53879    204.681  58.099
 29.54958    222.309  58.252
 29.56037    189.336  58.049
 29.57116    175.573  57.983
 29.58195    129.839  57.691
 29.59274     68.660  57.287
 29.60353     70.488  57.333
 29.61432     64.273  57.323
 29.62511     41.225  57.193
 29.63590     47.386   5.727
 29.64669     58.914  57.389
 29.65748     63.354  57.456
 29.66827     66.237  57.513
 29.67907    102.853  57.808
 29.68986    108.334  57.884
 29.70065     75.589  57.690
 29.71144     69.039  57.682
 29.72223     48.268  57.574
 29.73302     12.940  57.363
 29.74381     12.821   5.740
 29.75460     24.827  57.527
 29.76539     33.362  57.627
 29.77618      5.509  57.472
 29.78697     -6.005  57.432
 29.79776     10.459  57.589
 29.80855     30.769   5.777
 29.81934     35.931  57.852
 29.83013     57.527   5.805
 29.84092     77.449  58.226
 29.85171     65.878   5.819
 29.86250     95.432  58.436
 29.87329     61.504  58.244
 29.88408     26.206   5.804
 29.89487     68.696  58.380
 29.90566     50.133  58.295
 29.91645     23.408  58.154
 29.92724     61.509  58.461
 29.93804     92.806  58.721
 29.94883    121.411  58.961
 29.95962    140.072  59.132
 29.97041    177.621  59.430
 29.98120    230.430  59.830
 29.99199    282.140  60.220
 30.00278    345.192  60.682
 30.01357    398.669  61.077
 30.02436    420.432  61.261
 30.03515    464.084  61.588
 30.04594    609.836  62.572
 30.05673    875.791  64.295
 30.06752   1285.077   6.684
 30.07831   2047.575  71.301
 30.08910   4085.613  81.993
 30.09989   9877.404  10.663
 30.11068  23355.478  14.890
 30.12147  45045.566  19.885
 30.13226  65412.128  23.630
 30.14305  69038.962  24.233
 30.15384  52952.039  21.409
 30.16464  30585.782  16.715
 30.17543  14621.668  12.318
 30.18621   6512.180   9.324
 30.19701   3124.089  77.402
 30.20780   1656.764  69.452
 30.21859    975.544  65.454
 30.22938    602.691  63.176
 30.24017    401.241  61.929
 30.25096    262.245  61.065
 30.26175    181.643  60.574
 30.27254    127.672  60.255
 30.28333    105.270  60.144
 30.29412    117.685  60.262
 30.30491     70.599  59.986
 30.31570     13.428  59.642
 30.32649      7.849  59.640
 30.33728     30.098  59.823
 30.34807     20.749  59.794
 30.35886     26.341  59.865
 30.36965     15.216  59.823
 30.38044    -36.518   5.951
 30.39123    -44.841  59.488
 30.40202    -42.028  59.537
 30.41281    -36.356  59.605
 30.42360     -5.935  59.836
 30.43439     33.294  60.123
 30.44518     42.938  60.213
 30.45598     -6.632  59.913
 30.46677     -3.381  59.961
 30.47756     24.650  60.170
 30.48835     51.284  60.368
 30.49914     20.270   6.019
 30.50993     29.982  60.274
 30.52072     37.409  60.344
 30.53151     17.459  60.234
 30.54230     26.984  60.315
 30.55309     22.260  60.303
 30.56388     21.436   6.032
 30.57467      2.132  60.206
 30.58546    -18.981  60.083
 30.59625    -25.468   6.006
 30.60704    -33.117  60.020
 30.61783    -48.777  59.930
 30.62862    -26.897  60.085
 30.63941    -20.802  60.136
 30.65020    -24.485  60.122
 30.66099    -40.389  60.027
 30.67178    -17.679  60.182
 30.68257     16.065  60.408
 30.69337     83.062  60.846
 30.70416    155.509  61.315
 30.71495    163.405  61.368
 30.72574    125.393  61.127
 30.73653    117.537  61.078
 30.74732     59.225  60.704
 30.75811     17.815  60.436
 30.76890     -5.087  60.286
 30.77969     -1.158  60.309
 30.79048     31.612   6.052
 30.80127     95.058   6.092
 30.81206    131.036  61.142
 30.82285    214.037  61.661
 30.83364    315.758  62.291
 30.84443    463.204   6.320
 30.85522    700.020  64.627
 30.86601   1045.437  66.660
 30.87680   1706.972  70.398
 30.88759   3078.482  77.584
 30.89838   6963.681   9.505
 30.90917  16879.448  12.933
 30.91996  36069.546  17.779
 30.93075  59208.557  22.257
 30.94155  71953.781  24.372
 30.95234  63583.567  22.997
 30.96313  41790.944  18.969
 30.97392  21406.489  14.207
 30.98471   9932.111  10.628
 30.99550   4777.568  85.448
 31.00629   2565.040  74.740
 31.01708   1511.254  69.050
 31.02787    923.689  65.654
 31.03866    602.481  63.711
 31.04945    428.042  62.618
 31.06024    326.527  61.962
 31.07103    323.965  61.919
 31.08182    297.019  61.722
 31.09261    201.961  61.097
 31.10340    127.269  60.594
 31.11419     99.928  60.390
 31.12498     39.572  59.973
 31.13577      9.337  59.748
 31.14656     47.668  59.962
 31.15735     59.172  60.004
 31.16814     -5.830  59.553
 31.17893     13.500  59.645
 31.18972     62.069  59.923
 31.20052     42.764  59.766
 31.21131     40.116  59.715
 31.22209     42.009  59.693
 31.23289    138.098  60.272
 31.24368    199.948  60.630
 31.25447    114.324  60.052
 31.26526    117.734   6.004
 31.27605    164.559  60.302
 31.28684    197.677  60.477
 31.29763    294.167  61.049
 31.30842    459.515  62.042
 31.31921    648.823  63.162
 31.33000    804.318  64.062
 31.34079    853.299  64.319
 31.35158    768.685  63.782
 31.36237    554.060  62.452
 31.37316    416.229  61.571
 31.38395    350.467  61.130
 31.39474    349.192  61.090
 31.40553    457.818  61.731
 31.41632    539.555  62.201
 31.42711    496.504  61.906
 31.43790    449.911  61.589
 31.44869    388.991   6.118
 31.45949    355.566  60.944
 31.47028    329.046  60.750
 31.48107    369.152  60.971
 31.49186    385.122  61.043
 31.50265    441.254  61.364
 31.51344    462.203  61.467
 31.52423    487.596  61.598
 31.53502    598.511  62.252
 31.54581    708.139  62.891
 31.55660    758.412  63.170
 31.56739    991.042  64.526
 31.57818   1240.029  65.947
 31.58897   1725.875  68.654
 31.59976   2482.687  72.679
 31.61055   3391.494  77.237
 31.62134   3875.689  79.548
 31.63213   3507.288  77.760
 31.64292   2783.161  74.146
 31.65371   2002.529  70.047
 31.66450   1374.301  66.565
 31.67529    971.846  64.232
 31.68608    727.657   6.277
 31.69687    644.713  62.258
 31.70766    554.335  61.697
 31.71846    492.027  61.305
 31.72925    350.935  60.423
 31.74004    306.607  60.137
 31.75083    513.470  61.406
 31.76162    450.184   6.101
 31.77241    259.625   5.982
 31.78320    247.501  59.731
 31.79399    189.436  59.358
 31.80478    158.558  59.154
 31.81557    193.421  59.367
 31.82636    132.236  58.971
 31.83715     74.601  58.596
 31.84794    122.094  58.890
 31.85873    231.967  59.574
 31.86952    185.874  59.274
 31.88031     56.079  58.439
 31.89110     15.475  58.166
 31.90189     91.894  58.641
 31.91268     74.595  58.516
 31.92347    -25.382   5.786
 31.93426   -108.752  57.300
 31.94505    -44.807  57.694
 31.95585    100.071  58.599
 31.96664    106.700  58.615
 31.97743     97.050  58.524
 31.98822    207.925  59.193
 31.99901    195.010  59.076
 32.00980     90.711  58.375
 32.02059     21.454  57.887
 32.03138     46.036  57.995
 32.04217     10.727   5.771
 32.05296     79.918  58.097
 32.06375    159.471  58.536
 32.07454     36.824  57.681
 32.08533    -36.070  57.129
 32.09612     39.016  57.526
 32.10691    -40.379  56.915
 32.11770   -169.001  55.965
 32.12849      1.530  56.966
 32.13928     37.638  57.075
 32.15007    -80.132  56.169
 32.16086     13.194  56.632
 32.17165      9.325  56.446
 32.18245     95.177  56.833
 32.19323    410.672  58.666
 32.20403    564.262  59.432
 32.21481    382.041  58.079
 32.22561    453.864   5.831
 32.23640    580.165  58.859
 32.24719    737.881  59.583
 32.25798   1089.180  61.451
 32.26877   1568.598  63.985
 32.27956   1688.781  64.382
 32.29035   1294.075  61.764
 32.30114   2165.584  66.430
 32.31193   3597.848  73.620
 32.32272   3435.391  72.469
 32.33351   2752.759  68.547
 32.34430   2366.590  66.034
 32.35509   2445.322  66.032
