  1.11681    146.977  36.624
  1.12760    131.909  36.630
  1.13839   -206.709  35.578
  1.14918   -195.092  35.664
  1.15997    -66.190  36.115
  1.17076     92.419  36.638
  1.18155     54.986  36.536
  1.19234     16.908  36.428
  1.20313    -19.602  36.319
  1.21392    115.189  36.722
  1.22471    157.423  36.835
  1.23550    203.837  36.953
  1.24629    232.563  37.011
  1.25708    319.531  37.230
  1.26788    351.172  37.284
  1.27867    499.195  37.656
  1.28946    484.215  37.568
  1.30025    345.593  37.138
  1.31104    180.763  36.633
  1.32183    117.380  36.408
  1.33262     54.808  36.184
  1.34341     39.678  36.089
  1.35420     53.283  36.071
  1.36499     54.400  36.015
  1.37578    -22.807  35.746
  1.38657      6.212  35.763
  1.39736     73.990  35.880
  1.40815     36.315  35.714
  1.41894     23.154  35.612
  1.42973     56.081  35.630
  1.44052    129.608  35.750
  1.45131    137.349  35.697
  1.46210    149.889  35.655
  1.47289    167.591  35.625
  1.48368    105.924  35.393
  1.49447     34.350  35.135
  1.50526     53.553  35.107
  1.51605     76.034  35.087
  1.52685     68.340  34.989
  1.53764     61.625  34.894
  1.54843     26.119  34.728
  1.55922     60.089  34.732
  1.57001     61.258  34.656
  1.58080    123.753  34.728
  1.59159    130.383  34.663
  1.60238     96.044  34.499
  1.61317     33.696  34.268
  1.62396     -1.348  34.104
  1.63475    -32.094  33.950
  1.64554    -30.245  33.874
  1.65633     -8.266  33.847
  1.66712    -13.939  33.753
  1.67791     -2.908  33.699
  1.68870     29.670  33.696
  1.69949     38.678  33.637
  1.71028     -5.967  33.453
  1.72107    -52.370  33.265
  1.73186    -88.542  33.103
  1.74265    -59.810  33.091
  1.75344    -16.908  33.111
  1.76423     -8.332  33.052
  1.77503    -71.423  32.829
  1.78582    -13.525  32.883
  1.79661     53.284  32.956
  1.80740     47.439  32.865
  1.81819      6.795  32.697
  1.82898      3.287  32.612
  1.83977    -37.856  32.443
  1.85056    -64.093  32.309
  1.86135    -80.083  32.198
  1.87214    -30.408  32.233
  1.88293    -20.979  32.179
  1.89372    -15.253  32.117
  1.90451    -46.722  31.973
  1.91530    -20.793  31.956
  1.92609    -16.490  31.892
  1.93688      9.683  31.875
  1.94767    -14.987  31.749
  1.95846     -9.231  31.689
  1.96925    -34.158  31.564
  1.98004    -22.670  31.517
  1.99083    -15.034  31.462
  2.00162     -6.699  31.409
  2.01241     -6.677  31.338
  2.02320    -37.311  31.204
  2.03400    -34.529  31.140
  2.04479     -9.956  31.123
  2.05558      1.403  31.078
  2.06637    -41.120  30.921
  2.07716    -58.323  30.817
  2.08795    -33.887  30.800
  2.09874    -31.679  30.738
  2.10953    -28.681  30.677
  2.12032    -11.495  30.646
  2.13111     12.461  30.629
  2.14190     -2.519  30.533
  2.15269     -4.081  30.464
  2.16348     -8.048  30.391
  2.17427     -3.826  30.335
  2.18506      3.885  30.287
  2.19585    -12.434  30.190
  2.20664     29.027  30.210
  2.21743     14.317  30.117
  2.22822    -13.112  30.000
  2.23901    -44.742  29.875
  2.24980    -14.285  29.874
  2.26059     10.020  29.860
  2.27138     26.500  29.831
  2.28218    -16.493  29.686
  2.29297    -36.100  29.587
  2.30376    -35.815  29.528
  2.31455    -17.451  29.504
  2.32534      9.008  29.496
  2.33613     74.062  29.562
  2.34692    -11.023  29.339
  2.35771    -76.752  29.154
  2.36850    -76.179  29.097
  2.37929    -10.424  29.166
  2.39008      6.158  29.140
  2.40087      0.264  29.072
  2.41166     11.394  29.036
  2.42245     21.111  28.998
  2.43324     26.149  28.951
  2.44403     49.905  28.940
  2.45482     45.735  28.876
  2.46561     18.431  28.770
  2.47640     -5.046  28.671
  2.48719     11.473  28.647
  2.49798     20.879  28.610
  2.50877     -6.995  28.504
  2.51956    -51.216  28.368
  2.53035    -30.238  28.354
  2.54115     11.578  28.378
  2.55194     27.741  28.354
  2.56273     42.400  28.329
  2.57352     46.843  28.284
  2.58431      0.468  28.147
  2.59510    -20.502  28.057
  2.60589     -0.428  28.042
  2.61668      6.810  28.004
  2.62747     16.662  27.971
  2.63826     -7.297  27.877
  2.64905      3.351  27.845
  2.65984     26.547  27.837
  2.67063     57.015  27.841
  2.68142     51.597  27.782
  2.69221     40.120  27.712
  2.70300      7.080  27.603
  2.71379     29.433  27.594
  2.72458     23.180  27.534
  2.73537     49.662  27.533
  2.74616     32.757  27.454
  2.75695     28.303  27.398
  2.76774     20.783  27.337
  2.77853     38.061  27.320
  2.78932     23.449  27.247
  2.80012     18.342  27.191
  2.81091     28.254  27.162
  2.82170     28.115  27.115
  2.83249     22.228  27.058
  2.84328     15.897  27.001
  2.85407      8.624  26.943
  2.86486     30.516  26.935
  2.87565     53.237  26.928
  2.88644     28.285  26.840
  2.89723     28.846  26.796
  2.90802     37.716  26.766
  2.91881     10.928  26.676
  2.92960    -12.749  26.591
  2.94039    -30.282  26.517
  2.95118    -39.346  26.458
  2.96197    -31.095  26.429
  2.97276    -22.746  26.399
  2.98355    -11.934  26.374
  2.99434     12.723  26.373
  3.00513     -0.804  26.308
  3.01592    -16.493  26.239
  3.02671      6.255  26.234
  3.03750     17.588  26.211
  3.04830     27.371  26.185
  3.05909     45.372  26.173
  3.06988     61.534  26.158
  3.08067     57.426  26.110
  3.09146     40.211  26.040
  3.10225     -1.274  25.931
  3.11304      2.413  25.896
  3.12383     17.013  25.879
  3.13462     38.420  25.874
  3.14541     22.979  25.808
  3.15620     25.068  25.772
  3.16699     22.090  25.727
  3.17778     22.678  25.688
  3.18857     18.105  25.641
  3.19936     37.554  25.633
  3.21015     37.510  25.594
  3.22094     29.649  25.542
  3.23173     14.227  25.479
  3.24252     49.470  25.497
  3.25331     72.298  25.495
  3.26410     78.388  25.466
  3.27489     43.160  25.372
  3.28568     46.304  25.339
  3.29647     38.518  25.289
  3.30727     16.753  25.216
  3.31806     -5.677  25.143
  3.32885     -3.728  25.109
  3.33964     -4.537  25.071
  3.35043    -21.723  25.007
  3.36122    -21.790  24.970
  3.37201     11.398  24.986
  3.38280      6.851  24.943
  3.39359     15.487  24.920
  3.40438     14.035  24.882
  3.41517     -1.051  24.822
  3.42596     -3.313  24.783
  3.43675    -30.358  24.705
  3.44754    -21.438  24.684
  3.45833      8.246  24.695
  3.46912      8.622  24.660
  3.47991    -24.353  24.574
  3.49070    -29.160  24.532
  3.50149    -26.350  24.502
  3.51228     13.566  24.529
  3.52307     26.515  24.515
  3.53386     38.587  24.499
  3.54465     28.532  24.450
  3.55545     -4.289  24.366
  3.56624     -9.561  24.324
  3.57703     19.637  24.335
  3.58782      7.421  24.283
  3.59861     15.086  24.261
  3.60940     28.103  24.248
  3.62019     31.639  24.220
  3.63098     -2.250  24.136
  3.64177    -24.438  24.069
  3.65256     -2.764  24.070
  3.66335     29.839  24.086
  3.67414     20.861  24.040
  3.68493     30.234  24.022
  3.69572     23.949  23.981
  3.70651     19.797  23.942
  3.71730    -12.749  23.862
  3.72809    -30.978  23.803
  3.73888    -32.429  23.769
  3.74967     -2.766  23.782
  3.76046     15.617  23.778
  3.77125    -10.097  23.709
  3.78204    -41.510  23.631
  3.79283    -40.299  23.602
  3.80362    -18.501  23.603
  3.81442     10.334  23.615
  3.82521      3.624  23.575
  3.83600     -7.156  23.528
  3.84679    -24.526  23.472
  3.85758      0.123  23.478
  3.86837     11.783  23.465
  3.87916    -12.351  23.400
  3.88995    -53.875  23.309
  3.90074    -68.764  23.257
  3.91153    -53.370  23.250
  3.92232    -41.728  23.238
  3.93311    -30.408  23.225
  3.94390    -37.788  23.185
  3.95469    -26.906  23.171
  3.96548    -28.475  23.140
  3.97627    -39.396  23.095
  3.98706    -34.082  23.074
  3.99785     -0.347  23.094
  4.00864     -0.163  23.065
  4.01943     -6.752  23.027
  4.03022    -14.430  22.987
  4.04101    -20.792  22.949
  4.05180    -25.310  22.915
  4.06260    -33.581  22.874
  4.07339    -28.976  22.853
  4.08418     -9.597  22.852
  4.09497      0.129  22.838
  4.10576     15.778  22.832
  4.11655     22.278  22.813
  4.12734     14.358  22.774
  4.13813      7.494  22.737
  4.14892    -10.507  22.684
  4.15971    -40.121  22.614
  4.17050    -52.418  22.569
  4.18129    -32.840  22.570
  4.19208    -23.835  22.555
  4.20287    -30.624  22.518
  4.21366    -18.226  22.509
  4.22445    -20.386  22.478
  4.23524    -38.493  22.426
  4.24603    -18.406  22.427
  4.25682    -17.789  22.401
  4.26761    -42.424  22.340
  4.27840    -59.577  22.290
  4.28919    -30.813  22.303
  4.29998     11.358  22.335
  4.31077    -14.000  22.273
  4.32157    -55.132  22.190
  4.33236    -56.379  22.162
  4.34315     -8.776  22.201
  4.35394      0.987  22.189
  4.36473    -33.052  22.116
  4.37552    -26.462  22.099
  4.38631      8.160  22.120
  4.39710      6.649  22.092
  4.40789     -8.401  22.046
  4.41868    -26.103  21.996
  4.42947    -15.988  21.984
  4.44026    -28.695  21.941
  4.45105    -57.171  21.876
  4.46184    -50.455  21.860
  4.47263    -44.102  21.843
  4.48342    -29.258  21.838
  4.49421    -34.412  21.805
  4.50500    -30.434  21.786
  4.51579    -43.905  21.742
  4.52658    -50.324  21.708
  4.53737    -27.795  21.714
  4.54816     -1.114  21.725
  4.55895     -5.187  21.694
  4.56975    -22.085  21.646
  4.58054     16.340  21.673
  4.59133     45.067  21.686
  4.60212     30.901  21.643
  4.61291     18.212  21.601
  4.62370     10.715  21.566
  4.63449     29.441  21.567
  4.64528     30.040  21.543
  4.65607      2.575  21.482
  4.66686     -6.242  21.446
  4.67765     12.783  21.446
  4.68844     21.401  21.433
  4.69923     35.731  21.428
  4.71002     41.148  21.411
  4.72081     39.272  21.384
  4.73160     24.612  21.341
  4.74239     11.842  21.300
  4.75318     14.386  21.279
  4.76397     35.531  21.283
  4.77476     58.443  21.289
  4.78555     59.044  21.266
  4.79634     44.456  21.223
  4.80713      2.846  21.145
  4.81792    -19.562  21.092
  4.82872     19.707  21.119
  4.83951     39.812  21.122
  4.85030     25.444  21.080
  4.86109     19.211  21.048
  4.87188     55.988  21.072
  4.88267     63.849  21.059
  4.89346     38.074  21.003
  4.90425     37.689  20.979
  4.91504     32.286  20.949
  4.92583      7.489  20.893
  4.93662     19.436  20.886
  4.94741     37.173  20.886
  4.95820     39.147  20.865
  4.96899     33.775  20.835
  4.97978     20.388  20.795
  4.99057     21.401  20.774
  5.00136     53.980  20.793
  5.01215     53.993  20.770
  5.02294     43.808  20.734
  5.03373     59.756  20.732
  5.04452     30.230  20.672
  5.05531     18.062  20.634
  5.06610     23.788  20.619
  5.07690     24.769  20.598
  5.08769     31.123  20.583
  5.09848     42.930  20.576
  5.10927     39.304  20.549
  5.12006     29.878  20.515
  5.13085     18.767  20.479
  5.14164     38.683  20.482
  5.15243     44.483  20.468
  5.16322     48.071  20.450
  5.17401     32.509  20.409
  5.18480     22.079  20.374
  5.19559      0.335  20.325
  5.20638     24.133  20.333
  5.21717     56.131  20.352
  5.22796     53.236  20.327
  5.23875     25.839  20.271
  5.24954     17.073  20.239
  5.26033     13.475  20.213
  5.27112     44.014  20.230
  5.28191     58.151  20.226
  5.29270     54.898  20.201
  5.30349     52.873  20.177
  5.31428     64.587  20.171
  5.32508     76.700  20.165
  5.33587     52.082  20.114
  5.34666     65.446  20.109
  5.35745     72.475  20.097
  5.36824     72.667  20.077
  5.37903     71.599  20.055
  5.38982     73.235  20.036
  5.40061     78.897  20.023
  5.41140     79.469  20.003
  5.42219     91.011  19.997
  5.43298    101.487  19.989
  5.44377    108.076  19.977
  5.45456    122.886  19.975
  5.46535    145.611  19.982
  5.47614    153.287  19.972
  5.48693    126.481  19.919
  5.49772    106.778  19.875
  5.50851    121.556  19.873
  5.51930    147.606  19.885
  5.53009    100.862  19.809
  5.54088     77.888  19.761
  5.55167     91.478  19.758
  5.56246    109.542  19.761
  5.57325    103.525  19.734
  5.58404     85.185  19.692
  5.59484     51.094  19.632
  5.60563     56.636  19.620
  5.61642     62.586  19.608
  5.62721     68.656  19.596
  5.63800     66.180  19.574
  5.64879     55.608  19.543
  5.65958     22.018  19.484
  5.67037     17.097  19.459
  5.68116     42.163  19.471
  5.69195     28.714  19.436
  5.70274     -1.637  19.381
  5.71353     11.369  19.378
  5.72432     15.724  19.365
  5.73511     36.570  19.372
  5.74590     41.794  19.360
  5.75669     15.427  19.311
  5.76748    -14.188  19.258
  5.77827     24.094  19.286
  5.78906     12.084  19.254
  5.79985     12.716  19.237
  5.81064     34.763  19.245
  5.82143     36.347  19.230
  5.83222      6.671  19.177
  5.84302     -5.635  19.145
  5.85381    -14.039  19.118
  5.86460     -7.911  19.108
  5.87539     12.655  19.115
  5.88618     29.928  19.119
  5.89697     23.562  19.094
  5.90776      9.169  19.060
  5.91855    -10.084  19.021
  5.92934    -11.318  19.003
  5.94013    -14.309  18.983
  5.95092    -10.588  18.971
  5.96171    -14.647  18.950
  5.97250    -25.117  18.921
  5.98329    -29.651  18.899
  5.99408    -22.438  18.892
  6.00487    -20.500  18.878
  6.01566    -12.263  18.872
  6.02645      7.616  18.879
  6.03724     13.816  18.870
  6.04803     10.330  18.851
  6.05882     -4.647  18.818
  6.06961    -21.727  18.782
  6.08040    -29.900  18.757
  6.09120    -11.630  18.763
  6.10199     -2.703  18.758
  6.11278     -6.122  18.739
  6.12357     21.127  18.755
  6.13436     34.537  18.756
  6.14515     30.207  18.736
  6.15594     -3.532  18.682
  6.16673    -25.821  18.641
  6.17752    -18.727  18.635
  6.18831    -18.337  18.621
  6.19910     -1.342  18.626
  6.20989     -8.158  18.603
  6.22068    -42.813  18.549
  6.23147    -44.436  18.533
  6.24226    -42.365  18.521
  6.25305    -43.313  18.506
  6.26384    -28.074  18.510
  6.27463    -37.773  18.485
  6.28542    -44.374  18.463
  6.29621    -46.665  18.447
  6.30700    -40.700  18.440
  6.31779    -41.617  18.425
  6.32858    -20.752  18.436
  6.33938    -25.134  18.417
  6.35017    -29.631  18.399
  6.36096    -28.132  18.387
  6.37175     -2.859  18.403
  6.38254    -26.074  18.363
  6.39333    -38.064  18.337
  6.40412    -47.505  18.313
  6.41491    -26.291  18.324
  6.42570    -20.044  18.318
  6.43649    -16.231  18.310
  6.44728    -33.399  18.278
  6.45807    -19.977  18.281
  6.46886     -6.312  18.284
  6.47965    -19.459  18.256
  6.49044    -52.666  18.207
  6.50123    -56.947  18.190
  6.51202    -67.229  18.166
  6.52281    -68.128  18.153
  6.53360    -59.797  18.151
  6.54439    -58.721  18.140
  6.55518    -57.381  18.129
  6.56597    -37.201  18.140
  6.57676    -31.464  18.135
  6.58755    -33.996  18.120
  6.59835    -40.504  18.102
  6.60914    -14.854  18.119
  6.61993     13.902  18.139
  6.63072     10.611  18.124
  6.64151    -19.735  18.079
  6.65230    -11.549  18.077
  6.66309     -2.292  18.076
  6.67388     32.509  18.103
  6.68467     21.597  18.080
  6.69546     25.237  18.073
  6.70625     10.319  18.046
  6.71704     32.195  18.059
  6.72783     43.924  18.061
  6.73862     70.154  18.079
  6.74941    100.489  18.101
  6.76020    138.916  18.132
  6.77099    161.684  18.146
  6.78178    172.934  18.148
  6.79257    179.035  18.144
  6.80336    176.249  18.130
  6.81415    188.784  18.133
  6.82494    198.277  18.133
  6.83573    168.682  18.091
  6.84652    149.910  18.060
  6.85732     96.456  17.993
  6.86811     62.777  17.947
  6.87890     66.191  17.940
  6.88969     78.773  17.944
  6.90048     89.273  17.945
  6.91127    102.142  17.949
  6.92206    136.102  17.976
  6.93285    190.994  18.024
  6.94364    241.470  18.068
  6.95443    261.290  18.079
  6.96522    255.319  18.063
  6.97601    218.275  18.014
  6.98680    168.382  17.952
  6.99759    143.449  17.916
  7.00838    152.628  17.917
  7.01917    180.343  17.936
  7.02996    164.303  17.910
  7.04075    137.345  17.873
  7.05154    169.850  17.898
  7.06233    186.060  17.905
  7.07312    161.115  17.870
  7.08391    134.518  17.833
  7.09470    126.711  17.816
  7.10550    144.626  17.826
  7.11629    153.758  17.826
  7.12708    173.818  17.838
  7.13787    199.643  17.856
  7.14866    200.856  17.848
  7.15945    193.519  17.832
  7.17024    194.873  17.824
  7.18103    226.892  17.849
  7.19182    263.339  17.878
  7.20261    295.575  17.902
  7.21340    341.403  17.940
  7.22419    414.929  18.006
  7.23498    461.259  18.044
  7.24577    514.749  18.090
  7.25656    637.565  18.204
  7.26735    868.834  18.426
  7.27814   1307.630  18.845
  7.28893   2069.588  19.557
  7.29972   3052.668  20.439
  7.31051   3998.012  21.250
  7.32130   4746.574  21.867
  7.33209   5181.546  22.211
  7.34288   5153.464  22.175
  7.35367   4388.456  21.532
  7.36447   3110.726  20.424
  7.37526   1911.098  19.329
  7.38605   1218.809  18.665
  7.39684    859.374  18.308
  7.40763    671.613  18.114
  7.41842    563.717  17.999
  7.42921    477.949  17.905
  7.44000    441.728  17.860
  7.45079    398.516  17.809
  7.46158    350.890  17.753
  7.47237    319.818  17.714
  7.48316    277.925  17.663
  7.49395    241.810  17.619
  7.50474    235.871  17.605
  7.51553    223.353  17.584
  7.52632    193.318  17.546
  7.53711    175.165  17.520
  7.54790    190.330  17.527
  7.55869    183.543  17.512
  7.56948    158.685  17.479
  7.58027    144.397  17.456
  7.59106    164.934  17.469
  7.60185    155.710  17.452
  7.61265    152.586  17.440
  7.62344    136.627  17.417
  7.63423    121.781  17.394
  7.64502    128.273  17.392
  7.65581    136.597  17.392
  7.66660    120.466  17.368
  7.67739    123.511  17.363
  7.68818    117.348  17.349
  7.69897     78.481  17.303
  7.70976     74.818  17.291
  7.72055    109.598  17.317
  7.73134    103.656  17.303
  7.74213     88.550  17.280
  7.75292     77.001  17.261
  7.76371     60.561  17.237
  7.77450     51.662  17.220
  7.78529     68.167  17.228
  7.79608     87.032  17.239
  7.80687    102.097  17.245
  7.81766     81.644  17.217
  7.82845     76.869  17.204
  7.83924     84.737  17.204
  7.85003    106.825  17.217
  7.86083     96.861  17.199
  7.87162     65.125  17.160
  7.88241     73.792  17.160
  7.89320    102.403  17.180
  7.90399    119.123  17.188
  7.91478    122.885  17.183
  7.92557    100.714  17.153
  7.93636     87.432  17.132
  7.94715    110.370  17.146
  7.95794    111.036  17.138
  7.96873    116.460  17.135
  7.97952    126.425  17.136
  7.99031    148.280  17.149
  8.00110    159.250  17.151
  8.01189    150.255  17.134
  8.02268    158.204  17.133
  8.03347    185.125  17.150
  8.04426    201.848  17.158
  8.05505    213.138  17.160
  8.06584    214.496  17.152
  8.07663    200.338  17.130
  8.08742    208.759  17.129
  8.09821    277.210  17.186
  8.10900    313.874  17.212
  8.11979    310.116  17.199
  8.13059    306.688  17.187
  8.14138    308.058  17.179
  8.15217    347.731  17.207
  8.16296    400.977  17.248
  8.17375    438.076  17.274
  8.18454    466.940  17.292
  8.19533    557.385  17.367
  8.20612    723.720  17.511
  8.21691    930.639  17.691
  8.22770   1357.110  18.065
  8.23849   2135.321  18.734
  8.24928   3198.776  19.613
  8.26007   4203.445  20.406
  8.27086   4807.833  20.862
  8.28165   5375.742  21.281
  8.29244   6261.654  21.922
  8.30323   6690.767  22.219
  8.31402   6108.613  21.784
  8.32481   4459.120  20.532
  8.33560   2791.390  19.187
  8.34639   1636.147  18.197
  8.35718   1051.084  17.669
  8.36798    748.364  17.386
  8.37877    568.531  17.212
  8.38956    475.119  17.116
  8.40035    398.116  17.035
  8.41114    334.215  16.966
  8.42193    288.053  16.913
  8.43272    260.960  16.878
  8.44351    219.447  16.829
  8.45430    209.629  16.810
  8.46509    176.716  16.769
  8.47588    141.446  16.726
  8.48667    103.390  16.680
  8.49746     83.630  16.652
  8.50825     80.169  16.638
  8.51904     82.281  16.630
  8.52983     55.070  16.594
  8.54062     32.860  16.563
  8.55141     42.901  16.562
  8.56220     26.305  16.536
  8.57299     14.136  16.514
  8.58378     11.520  16.501
  8.59457      3.315  16.483
  8.60536    -11.644  16.459
  8.61615    -28.683  16.432
  8.62695    -27.136  16.423
  8.63774    -11.513  16.427
  8.64853    -10.730  16.417
  8.65932     11.600  16.426
  8.67011      5.620  16.410
  8.68090    -17.553  16.378
  8.69169    -14.917  16.369
  8.70248     24.929  16.395
  8.71327     26.773  16.385
  8.72406     23.322  16.371
  8.73485     17.128  16.354
  8.74564     25.534  16.351
  8.75643     10.876  16.326
  8.76722      1.515  16.306
  8.77801      5.603  16.298
  8.78880      8.612  16.290
  8.79959    -10.429  16.261
  8.81038    -40.481  16.221
  8.82117    -42.783  16.208
  8.83196    -37.614  16.201
  8.84275    -34.075  16.192
  8.85354    -19.311  16.194
  8.86433    -13.453  16.188
  8.87512    -13.341  16.176
  8.88592    -34.342  16.145
  8.89671    -45.434  16.123
  8.90750    -24.860  16.130
  8.91829    -25.364  16.117
  8.92908    -26.544  16.104
  8.93987    -14.651  16.103
  8.95066      8.981  16.112
  8.96145     27.262  16.117
  8.97224     23.689  16.101
  8.98303     -8.113  16.060
  8.99382    -19.125  16.037
  9.00461    -13.153  16.030
  9.01540      5.032  16.035
  9.02619     -1.450  16.016
  9.03698    -21.398  15.985
  9.04777    -37.571  15.958
  9.05856    -41.986  15.941
  9.06935    -12.336  15.956
  9.08014     -6.907  15.948
  9.09093     -3.452  15.938
  9.10172     -8.277  15.921
  9.11251     -7.591  15.909
  9.12330    -21.835  15.883
  9.13410    -16.238  15.875
  9.14489     -7.278  15.870
  9.15568     -6.520  15.858
  9.16647     -2.132  15.849
  9.17726    -18.077  15.821
  9.18805    -17.614  15.808
  9.19884     10.991  15.821
  9.20963     15.509  15.812
  9.22042      2.638  15.787
  9.23121    -13.302  15.759
  9.24200      6.048  15.763
  9.25279     26.955  15.768
  9.26358     11.539  15.741
  9.27437      1.426  15.718
  9.28516     20.338  15.722
  9.29595      3.186  15.693
  9.30674     -6.484  15.670
  9.31753      6.667  15.668
  9.32832    -10.608  15.639
  9.33911     -0.865  15.634
  9.34990     17.328  15.637
  9.36069     15.600  15.621
  9.37148     -9.777  15.584
  9.38227     -3.994  15.576
  9.39307     35.103  15.597
  9.40386     16.921  15.566
  9.41465     -1.220  15.536
  9.42544    -25.732  15.500
  9.43623    -10.257  15.500
  9.44702     18.588  15.511
  9.45781     34.891  15.512
  9.46860     41.665  15.504
  9.47939     25.744  15.475
  9.49018     15.891  15.452
  9.50097     20.664  15.442
  9.51176     22.289  15.429
  9.52255     -5.331  15.390
  9.53334     18.145  15.396
  9.54413     56.416  15.416
  9.55492     53.075  15.399
  9.56571     49.025  15.381
  9.57650     45.134  15.363
  9.58729     50.839  15.353
  9.59808     46.563  15.335
  9.60887     33.860  15.309
  9.61966     36.622  15.296
  9.63045     43.119  15.287
  9.64124     15.040  15.247
  9.65204    -11.732  15.209
  9.66283    -25.441  15.182
  9.67362    -13.656  15.177
  9.68441     -1.403  15.173
  9.69520     15.945  15.174
  9.70599     26.104  15.168
  9.71678     50.905  15.176
  9.72757    114.507  15.217
  9.73836    160.308  15.243
  9.74915    161.855  15.230
  9.75994    135.919  15.191
  9.77073     87.276  15.133
  9.78152     56.109  15.090
  9.79231     32.386  15.054
  9.80310     19.438  15.027
  9.81389      7.891  15.002
  9.82468     10.687  14.989
  9.83547     -7.505  14.958
  9.84626     15.736  14.963
  9.85705     36.850  14.967
  9.86784     19.547  14.936
  9.87863    -13.153  14.892
  9.88943    -33.957  14.858
  9.90022    -21.152  14.854
  9.91101      7.985  14.865
  9.92180     10.484  14.852
  9.93259      1.616  14.829
  9.94338     26.783  14.836
  9.95417     15.760  14.811
  9.96496    -29.449  14.755
  9.97575    -31.789  14.737
  9.98654     -5.402  14.746
  9.99733     41.397  14.772
 10.00812     59.543  14.773
 10.01891     35.284  14.736
 10.02970     17.681  14.705
 10.04049    -11.459  14.663
 10.05128    -33.396  14.628
 10.06207     -6.195  14.637
 10.07286      6.765  14.633
 10.08365    -25.532  14.589
 10.09444     -5.415  14.591
 10.10523     20.368  14.599
 10.11602      6.571  14.571
 10.12681     -3.402  14.547
 10.13761     16.768  14.549
 10.14840     28.862  14.545
 10.15919     53.381  14.551
 10.16998     48.378  14.531
 10.18077     -4.972  14.468
 10.19156     -6.597  14.451
 10.20235      4.260  14.445
 10.21314    -15.632  14.412
 10.22393    -14.892  14.397
 10.23472      2.489  14.397
 10.24551     15.079  14.393
 10.25630     10.135  14.373
 10.26709     -1.769  14.347
 10.27788    -16.304  14.319
 10.28867    -16.695  14.303
 10.29946     -9.540  14.294
 10.31025    -22.177  14.267
 10.32104     -4.342  14.268
 10.33183     16.977  14.271
 10.34262      0.986  14.241
 10.35341     -7.792  14.218
 10.36420     -0.016  14.210
 10.37499      3.461  14.197
 10.38578      9.590  14.188
 10.39658      6.172  14.169
 10.40737     -1.105  14.147
 10.41816      7.244  14.139
 10.42895     18.868  14.134
 10.43974     35.014  14.133
 10.45053     11.351  14.097
 10.46132    -23.589  14.050
 10.47211     -2.667  14.054
 10.48290     14.781  14.054
 10.49369     18.305  14.042
 10.50448      3.327  14.013
 10.51527      1.272  13.996
 10.52606     -4.700  13.976
 10.53685     -6.085  13.959
 10.54764     12.313  13.960
 10.55843     26.718  13.958
 10.56922      9.274  13.927
 10.58001    -22.676  13.884
 10.59080    -24.435  13.867
 10.60159    -32.378  13.845
 10.61238    -25.438  13.836
 10.62317    -11.294  13.833
 10.63396     -0.518  13.828
 10.64475      1.004  13.814
 10.65555     -9.385  13.790
 10.66634    -18.849  13.766
 10.67713    -19.500  13.751
 10.68792    -12.122  13.742
 10.69871     -5.456  13.733
 10.70950    -12.060  13.713
 10.72029    -26.734  13.685
 10.73108    -12.235  13.683
 10.74187      5.907  13.684
 10.75266     17.389  13.680
 10.76345     23.450  13.670
 10.77424     20.986  13.653
 10.78503     -8.103  13.612
 10.79582    -24.170  13.583
 10.80661    -22.451  13.570
 10.81740     -6.262  13.570
 10.82819    -17.473  13.545
 10.83898    -11.869  13.536
 10.84977     -0.702  13.531
 10.86056     -9.245  13.509
 10.87135    -35.821  13.470
 10.88214    -59.971  13.434
 10.89293    -39.452  13.438
 10.90372    -23.619  13.438
 10.91451     -1.060  13.444
 10.92530     13.877  13.443
 10.93610      6.071  13.421
 10.94689     -3.225  13.399
 10.95768     -2.365  13.385
 10.96847      5.186  13.378
 10.97926     33.579  13.389
 10.99005     53.823  13.393
 11.00084     63.430  13.387
 11.01163     57.336  13.368
 11.02242     40.557  13.338
 11.03321     54.564  13.337
 11.04400     79.140  13.345
 11.05479     94.305  13.344
 11.06558    109.759  13.344
 11.07637    117.526  13.337
 11.08716    125.116  13.330
 11.09795    151.132  13.339
 11.10874    163.484  13.336
 11.11953    151.199  13.311
 11.13032    142.129  13.290
 11.14111    160.021  13.292
 11.15190    194.845  13.309
 11.16269    256.774  13.350
 11.17349    387.209  13.451
 11.18428    632.217  13.650
 11.19507    975.963  13.929
 11.20586   1307.309  14.192
 11.21665   1414.967  14.268
 11.22744   1196.057  14.073
 11.23823    812.493  13.737
 11.24902    496.731  13.452
 11.25981    332.624  13.295
 11.27060    283.308  13.238
 11.28139    218.204  13.168
 11.29218    165.448  13.108
 11.30297    139.375  13.071
 11.31376    140.863  13.059
 11.32455    137.485  13.043
 11.33534    164.934  13.054
 11.34613    198.033  13.071
 11.35692    194.782  13.055
 11.36771    197.660  13.044
 11.37850    212.121  13.044
 11.38929    219.108  13.037
 11.40008    240.538  13.043
 11.41088    306.711  13.089
 11.42167    431.291  13.185
 11.43246    688.912  13.395
 11.44325   1105.100  13.735
 11.45404   1462.478  14.018
 11.46483   1539.619  14.068
 11.47562   1257.095  13.823
 11.48641    834.581  13.456
 11.49720    511.674  13.166
 11.50799    356.993  13.019
 11.51878    293.185  12.950
 11.52957    276.523  12.923
 11.54036    261.137  12.897
 11.55115    244.709  12.870
 11.56194    245.679  12.858
 11.57273    245.438  12.846
 11.58352    251.602  12.839
 11.59431    285.417  12.857
 11.60510    328.116  12.882
 11.61589    345.522  12.885
 11.62668    358.884  12.885
 11.63747    386.134  12.896
 11.64826    422.641  12.916
 11.65906    449.019  12.927
 11.66985    496.088  12.956
 11.68064    563.727  13.003
 11.69143    629.944  13.048
 11.70222    703.076  13.099
 11.71301    804.608  13.173
 11.72380    946.765  13.282
 11.73459   1104.272  13.402
 11.74538   1316.346  13.566
 11.75617   1633.493  13.814
 11.76696   2097.771  14.172
 11.77775   2811.516  14.712
 11.78854   4207.256  15.722
 11.79933   7794.263  18.073
 11.81012  20630.893  24.731
 11.82091  65711.217  40.154
 11.83170 184334.449  65.142
 11.84249 377098.381  92.269
 11.85328 570865.582 113.128
 11.86407 619101.774 117.700
 11.87486 480999.701 103.859
 11.88565 264347.540  77.398
 11.89644 100899.232  48.759
 11.90723  31187.530  28.948
 11.91803  10583.774  19.576
 11.92882   5614.668  16.533
 11.93961   4037.638  15.437
 11.95040   3416.557  14.976
 11.96119   3169.113  14.782
 11.97198   3176.658  14.777
 11.98277   3421.942  14.946
 11.99356   3975.716  15.335
 12.00435   5370.676  16.289
 12.01514   7696.644  17.769
 12.02593  11355.229  19.879
 12.03672  14631.074  21.590
 12.04751  16478.752  22.490
 12.05830  16253.870  22.368
 12.06909  14143.056  21.303
 12.07988  11453.613  19.871
 12.09067   9536.787  18.782
 12.10146   8645.834  18.248
 12.11225   9062.180  18.482
 12.12304  10769.452  19.445
 12.13383  14723.185  21.520
 12.14462  19786.549  23.916
 12.15541  23341.489  25.457
 12.16620  22970.944  25.285
 12.17699  18704.559  23.382
 12.18778  13080.174  20.616
 12.19858   8852.428  18.264
 12.20937   6486.586  16.802
 12.22016   5175.517  15.931
 12.23095   4372.432  15.369
 12.24174   3898.408  15.024
 12.25253   3488.180  14.718
 12.26332   3069.904  14.400
 12.27411   2647.283  14.072
 12.28490   2213.022  13.727
 12.29569   1809.487  13.399
 12.30648   1500.514  13.141
 12.31727   1268.387  12.941
 12.32806   1106.730  12.797
 12.33885    982.446  12.682
 12.34964    872.210  12.579
 12.36043    767.447  12.480
 12.37122    672.807  12.389
 12.38201    577.829  12.297
 12.39280    495.907  12.216
 12.40359    438.927  12.157
 12.41438    387.207  12.101
 12.42517    326.471  12.038
 12.43597    286.059  11.992
 12.44675    277.207  11.974
 12.45755    242.842  11.934
 12.46834    199.023  11.885
 12.47913    186.780  11.864
 12.48992    177.917  11.846
 12.50071    139.685  11.802
 12.51150    105.633  11.762
 12.52229    108.832  11.755
 12.53308    116.825  11.752
 12.54387     88.604  11.717
 12.55466     76.283  11.695
 12.56545     75.648  11.685
 12.57624     51.789  11.654
 12.58703      9.662  11.606
 12.59782    -17.987  11.571
 12.60861     -6.844  11.571
 12.61940     20.374  11.585
 12.63019     10.985  11.567
 12.64098     -6.668  11.541
 12.65177     -9.555  11.529
 12.66256    -10.704  11.518
 12.67336    -13.223  11.505
 12.68414    -10.253  11.498
 12.69494    -15.690  11.483
 12.70573    -21.527  11.468
 12.71652     -3.927  11.474
 12.72731     13.323  11.480
 12.73810     19.800  11.476
 12.74889     10.017  11.457
 12.75968      0.850  11.439
 12.77047      3.077  11.431
 12.78126     17.942  11.434
 12.79205     29.955  11.435
 12.80284     39.383  11.434
 12.81363     54.036  11.437
 12.82442     90.603  11.460
 12.83521    147.712  11.501
 12.84600    204.603  11.541
 12.85679    306.706  11.621
 12.86758    472.515  11.756
 12.87837    598.299  11.854
 12.88916    641.479  11.881
 12.89995    618.290  11.852
 12.91074    559.585  11.791
 12.92154    488.915  11.720
 12.93232    462.263  11.688
 12.94312    514.748  11.723
 12.95391    627.100  11.810
 12.96470    833.622  11.975
 12.97549   1161.922  12.239
 12.98628   1455.482  12.469
 12.99707   1692.703  12.649
 13.00786   1773.281  12.703
 13.01865   1727.074  12.657
 13.02944   1760.956  12.674
 13.04023   1969.536  12.828
 13.05102   2398.651  13.149
 13.06181   3039.673  13.619
 13.07260   4030.550  14.320
 13.08339   5516.541  15.313
 13.09418   7821.454  16.741
 13.10497  11232.240  18.655
 13.11576  14273.921  20.207
 13.12655  15179.999  20.637
 13.13734  13250.686  19.672
 13.14813   9347.708  17.575
 13.15892   5814.197  15.434
 13.16971   3599.439  13.924
 13.18051   2461.229  13.077
 13.19130   1848.468  12.593
 13.20209   1450.366  12.266
 13.21288   1189.173  12.043
 13.22367    991.050  11.869
 13.23446    832.058  11.726
 13.24525    726.169  11.626
 13.25604    649.851  11.551
 13.26683    612.086  11.509
 13.27762    570.589  11.463
 13.28841    531.107  11.419
 13.29920    529.696  11.408
 13.30999    559.394  11.423
 13.32078    651.086  11.492
 13.33157    782.792  11.594
 13.34236    919.403  11.699
 13.35315    966.161  11.728
 13.36394    854.622  11.624
 13.37473    682.532  11.468
 13.38552    561.911  11.355
 13.39631    507.736  11.298
 13.40710    529.039  11.306
 13.41789    551.753  11.316
 13.42868    579.550  11.330
 13.43947    609.356  11.345
 13.45026    664.831  11.382
 13.46106    718.766  11.418
 13.47185    766.854  11.449
 13.48264    811.173  11.476
 13.49343    868.785  11.514
 13.50422    957.494  11.579
 13.51501   1087.402  11.676
 13.52580   1244.240  11.795
 13.53659   1410.159  11.920
 13.54738   1591.289  12.056
 13.55817   1807.205  12.217
 13.56896   2076.298  12.417
 13.57975   2418.517  12.670
 13.59054   2862.093  12.992
 13.60133   3467.428  13.422
 13.61212   4406.413  14.068
 13.62291   5973.411  15.089
 13.63370   8729.590  16.739
 13.64449  14799.177  19.902
 13.65528  31191.432  26.634
 13.66607  76766.628  39.751
 13.67686 167984.968  57.633
 13.68765 284230.436  74.417
 13.69844 360283.307  83.570
 13.70923 343679.678  81.619
 13.72003 245241.358  69.148
 13.73082 130348.809  50.903
 13.74161  53981.783  33.719
 13.75240  20891.400  22.523
 13.76319  11677.000  18.217
 13.77398  10069.201  17.348
 13.78477  11133.278  17.909
 13.79556  13941.031  19.326
 13.80635  17671.483  21.063
 13.81714  21113.078  22.544
 13.82793  21834.182  22.832
 13.83872  20041.202  22.066
 13.84951  17645.185  21.004
 13.86030  15682.146  20.092
 13.87109  13713.833  19.136
 13.88188  11328.418  17.913
 13.89267   8831.659  16.539
 13.90346   6609.912  15.213
 13.91425   5240.194  14.332
 13.92504   4398.411  13.759
 13.93584   3810.601  13.342
 13.94662   3340.239  12.997
 13.95742   2965.394  12.714
 13.96820   2652.569  12.471
 13.97900   2382.164  12.256
 13.98979   2154.053  12.071
 14.00058   1957.285  11.907
 14.01137   1782.443  11.759
 14.02216   1641.412  11.636
 14.03295   1549.161  11.551
 14.04374   1468.208  11.475
 14.05453   1381.415  11.394
 14.06532   1336.494  11.346
 14.07611   1367.186  11.360
 14.08690   1480.558  11.442
 14.09769   1635.468  11.556
 14.10848   1719.461  11.612
 14.11927   1665.850  11.559
 14.13006   1490.996  11.407
 14.14085   1291.386  11.234
 14.15164   1125.373  11.086
 14.16243   1043.176  11.006
 14.17322   1000.518  10.960
 14.18401   1011.281  10.958
 14.19480   1085.982  11.009
 14.20560   1174.396  11.072
 14.21639   1219.677  11.099
 14.22718   1184.502  11.059
 14.23797   1095.247  10.974
 14.24876    983.092  10.869
 14.25955    914.835  10.800
 14.27034    894.704  10.772
 14.28113    858.117  10.730
 14.29192    831.878  10.697
 14.30271    831.197  10.685
 14.31350    821.687  10.666
 14.32429    801.439  10.638
 14.33508    781.860  10.610
 14.34587    777.537  10.595
 14.35666    753.932  10.564
 14.36745    718.903  10.523
 14.37824    673.642  10.473
 14.38903    648.078  10.439
 14.39982    622.114  10.406
 14.41061    593.459  10.370
 14.42140    550.218  10.321
 14.43219    509.877  10.274
 14.44299    481.762  10.239
 14.45377    457.706  10.206
 14.46457    423.308  10.165
 14.47536    384.696  10.119
 14.48615    361.623  10.087
 14.49694    351.915  10.068
 14.50773    350.277  10.055
 14.51852    346.215  10.040
 14.52931    344.183  10.027
 14.54010    344.158  10.016
 14.55089    367.724  10.026
 14.56168    380.505  10.026
 14.57247    424.742  10.054
 14.58326    487.483  10.099
 14.59405    577.884  10.168
 14.60484    757.842  10.313
 14.61563   1109.811  10.603
 14.62642   1783.239  11.144
 14.63721   2591.471  11.761
 14.64800   3139.462  12.158
 14.65879   3175.366  12.174
 14.66958   2709.262  11.818
 14.68037   2038.242  11.292
 14.69116   1473.282  10.828
 14.70195   1168.473  10.564
 14.71274   1061.693  10.463
 14.72354    943.592  10.352
 14.73433    736.091  10.162
 14.74512    531.726   9.972
 14.75591    371.830   9.818
 14.76670    271.232   9.716
 14.77749    200.567   9.641
 14.78828    147.591   9.581
 14.79907    119.696   9.544
 14.80986     95.031   9.510
 14.82065     70.775   9.477
 14.83144     55.403   9.451
 14.84223     43.297   9.429
 14.85302     21.563   9.397
 14.86381      8.109   9.374
 14.87460     15.562   9.370
 14.88539     14.745   9.358
 14.89618     -6.395   9.327
 14.90697    -26.745   9.297
 14.91776    -32.001   9.281
 14.92855    -42.921   9.259
 14.93934    -38.336   9.253
 14.95013    -15.450   9.263
 14.96092      3.494   9.270
 14.97171     -1.808   9.254
 14.98251      1.143   9.246
 14.99330     12.709   9.246
 15.00409     11.952   9.234
 15.01488    -13.314   9.199
 15.02567    -33.455   9.169
 15.03646    -32.415   9.159
 15.04725    -26.394   9.154
 15.05804    -27.734   9.142
 15.06883    -37.685   9.122
 15.07962    -26.176   9.122
 15.09041      3.433   9.139
 15.10120     26.736   9.150
 15.11199     58.609   9.169
 15.12278     91.226   9.189
 15.13357     85.487   9.173
 15.14436     51.693   9.131
 15.15515     30.965   9.100
 15.16594     29.083   9.088
 15.17673     25.445   9.074
 15.18752     17.792   9.056
 15.19831     15.724   9.044
 15.20910     20.517   9.037
 15.21989     11.715   9.019
 15.23068     10.944   9.007
 15.24148     27.145   9.012
 15.25227     42.829   9.017
 15.26306     47.674   9.011
 15.27385     55.714   9.008
 15.28464     62.992   9.004
 15.29543     76.582   9.007
 15.30622     85.128   9.005
 15.31701    102.303   9.011
 15.32780    122.146   9.019
 15.33859    143.738   9.029
 15.34938    170.914   9.045
 15.36017    183.578   9.046
 15.37096    187.840   9.040
 15.38175    206.215   9.047
 15.39254    215.645   9.046
 15.40333    222.570   9.043
 15.41412    247.537   9.056
 15.42491    269.425   9.066
 15.43570    312.764   9.097
 15.44649    388.399   9.157
 15.45728    461.061   9.213
 15.46808    535.979   9.272
 15.47887    639.405   9.355
 15.48966    761.334   9.455
 15.50045    926.434   9.591
 15.51124   1101.898   9.733
 15.52203   1247.936   9.849
 15.53282   1335.431   9.914
 15.54361   1371.656   9.935
 15.55440   1347.404   9.905
 15.56519   1286.146   9.844
 15.57598   1229.906   9.787
 15.58677   1149.461   9.709
 15.59756   1025.904   9.594
 15.60835    942.086   9.511
 15.61914    889.386   9.456
 15.62993    850.447   9.413
 15.64072    819.979   9.377
 15.65151    809.066   9.358
 15.66230    807.194   9.347
 15.67309    801.035   9.333
 15.68388    814.004   9.336
 15.69467    835.649   9.346
 15.70546    839.474   9.341
 15.71625    832.362   9.326
 15.72705    832.797   9.317
 15.73784    836.087   9.311
 15.74863    847.315   9.313
 15.75942    843.873   9.301
 15.77021    821.973   9.273
 15.78100    771.581   9.220
 15.79179    715.125   9.161
 15.80258    665.962   9.108
 15.81337    614.490   9.053
 15.82416    582.297   9.016
 15.83495    536.525   8.966
 15.84574    508.517   8.932
 15.85653    461.503   8.880
 15.86732    407.831   8.822
 15.87811    377.145   8.786
 15.88890    381.685   8.782
 15.89969    368.157   8.761
 15.91048    347.982   8.734
 15.92127    330.271   8.710
 15.93206    308.120   8.681
 15.94285    288.506   8.654
 15.95364    281.706  86.402
 15.96443    264.575  86.162
 15.97522    252.566  85.971
 15.98602    273.660  86.093
 15.99681    309.442  86.352
 16.00760    408.267   8.720
 16.01839    594.005   8.883
 16.02918    796.534   9.059
 16.03997    892.516   9.136
 16.05076    794.384   9.042
 16.06155    578.763   8.840
 16.07234    360.788  86.310
 16.08313    222.900  84.938
 16.09392    141.248   8.409
 16.10471    110.746  83.722
 16.11550    117.072  83.711
 16.12629    106.507  83.538
 16.13708     85.454  83.265
 16.14787     88.378  83.223
 16.15866     85.905  83.129
 16.16945     61.180  82.821
 16.18024     58.468  82.726
 16.19103     72.548  82.795
 16.20182     74.513  82.746
 16.21261     57.127  82.511
 16.22340     40.649   8.228
 16.23420     22.965  82.046
 16.24499     24.876  82.000
 16.25577     38.160   8.206
 16.26657     47.300  82.088
 16.27736     38.991  81.943
 16.28815     36.711  81.858
 16.29894     48.465  81.909
 16.30973     39.928  81.764
 16.32052     34.439  81.649
 16.33131     20.232  81.449
 16.34210     25.029  81.435
 16.35289     52.515  81.642
 16.36368     62.377  81.678
 16.37447     91.191  81.898
 16.38526     94.302  81.870
 16.39605     66.200  81.540
 16.40684     57.148  81.394
 16.41763     55.000  81.317
 16.42842     32.197  81.039
 16.43921     29.761  80.959
 16.45000     41.761  81.020
 16.46079     34.267  80.892
 16.47158     13.029  80.631
 16.48237     22.727  80.672
 16.49317     23.476  80.626
 16.50396     40.433  80.738
 16.51475     61.252  80.888
 16.52554     84.508   8.106
 16.53633    142.918  81.572
 16.54712    224.980  82.305
 16.55791    322.226  83.174
 16.56870    385.593  83.718
 16.57949    387.856  83.690
 16.59028    377.658  83.545
 16.60107    348.961  83.229
 16.61186    304.308  82.761
 16.62265    240.376  82.110
 16.63344    188.218   8.157
 16.64423    175.313  81.397
 16.65502    151.744  81.126
 16.66581    135.267  80.923
 16.67660    121.496  80.746
 16.68739     89.842   8.040
 16.69818     94.876  80.402
 16.70897    132.556  80.721
 16.71976    197.132  81.295
 16.73055    299.727  82.223
 16.74134    414.188  83.251
 16.75214    457.790  83.613
 16.76293    375.916  82.812
 16.77372    234.872   8.145
 16.78451    138.938  80.492
 16.79530     86.468  79.949
 16.80609     44.386  79.504
 16.81688     18.678  79.216
 16.82767     19.557  79.187
 16.83846     43.793  79.384
 16.84925    110.022  79.986
 16.86004    191.618  80.728
 16.87083    211.482  80.880
 16.88162    180.212  80.547
 16.89241    120.999  79.947
 16.90320     43.539  79.167
 16.91399      6.970  78.779
 16.92478    -12.567  78.555
 16.93557    -21.866  78.431
 16.94636    -22.242  78.395
 16.95715    -25.517  78.331
 16.96794    -19.529  78.357
 16.97874    -18.343  78.337
 16.98953    -19.903  78.291
 17.00032    -33.116  78.131
 17.01111    -42.033  78.014
 17.02190    -40.250  78.002
 17.03269    -46.710  77.910
 17.04348    -42.971  77.917
 17.05427    -17.803  78.133
 17.06506    -24.749  78.037
 17.07585    -36.184  77.898
 17.08664    -30.062  77.930
 17.09743    -33.932  77.866
 17.10822    -34.617  77.833
 17.11901    -32.138  77.830
 17.12980    -41.298  77.715
 17.14059    -51.153  77.594
 17.15138    -29.085   7.778
 17.16217    -26.236  77.786
 17.17296    -52.067  77.511
 17.18375    -61.863  77.392
 17.19454    -58.921  77.397
 17.20533    -49.578  77.464
 17.21612    -29.812  77.632
 17.22691    -35.311  77.556
 17.23770    -38.305  77.505
 17.24849    -24.426  77.617
 17.25928    -24.513  77.594
 17.27008    -34.103  77.480
 17.28087    -43.129  77.372
 17.29166    -48.337  77.301
 17.30245    -40.544  77.356
 17.31324    -33.643  77.402
 17.32403    -21.002  77.504
 17.33482    -20.128  77.493
 17.34561     -7.794  77.592
 17.35640     15.796  77.798
 17.36719     51.735  78.122
 17.37798     93.753   7.850
 17.38877    166.429  79.168
 17.39956    294.317  80.339
 17.41035    500.374  82.200
 17.42114    699.504  83.956
 17.43193    746.093  84.346
 17.44272    608.123  83.106
 17.45351    373.917  80.976
 17.46430    189.406  79.256
 17.47509    100.389  78.405
 17.48588     76.468  78.163
 17.49667     48.425  77.882
 17.50746     18.084  77.578
 17.51825      5.800  77.446
 17.52905      4.551  77.419
 17.53984      7.255  77.429
 17.55063      4.111  77.384
 17.56142      5.287  77.381
 17.57221      8.786  77.400
 17.58300      6.936  77.368
 17.59379      3.062  77.317
 17.60458      7.990  77.350
 17.61537     25.256  77.499
 17.62616     20.973  77.445
 17.63695     19.047  77.413
 17.64774     38.847   7.759
 17.65853     40.206  77.586
 17.66932     43.537  77.604
 17.68011     77.513  77.910
 17.69090     99.404  78.102
 17.70169    118.002  78.262
 17.71248    145.018  78.500
 17.72327    175.598  78.770
 17.73406    192.614  78.914
 17.74485    231.442  79.258
 17.75565    276.187   7.965
 17.76644    324.520   8.008
 17.77723    385.435  80.616
 17.78802    482.568  81.471
 17.79881    626.039  82.723
 17.80960    802.725  84.241
 17.82039   1001.168  85.913
 17.83118   1194.998   8.751
 17.84197   1341.752   8.870
 17.85276   1422.459   8.934
 17.86355   1554.714   9.038
 17.87434   1823.235   9.248
 17.88513   2328.247   9.632
 17.89592   3287.518  10.322
 17.90671   4738.429  11.286
 17.91750   6138.790  12.143
 17.92829   6825.201  12.540
 17.93908   6312.342  12.239
 17.94987   4892.027  11.373
 17.96066   3394.780  10.383
 17.97145   2358.318   9.638
 17.98224   1809.928   9.220
 17.99303   1521.172   8.991
 18.00382   1360.037   8.860
 18.01462   1240.544   8.762
 18.02541   1121.405   8.662
 18.03620    985.323  85.481
 18.04699    818.929  84.065
 18.05778    655.206  82.651
 18.06857    537.497  81.616
 18.07936    469.187  81.005
 18.09015    430.247  80.650
 18.10094    400.237  80.372
 18.11173    376.883  80.153
 18.12252    342.381  79.834
 18.13331    336.587  79.771
 18.14410    369.500  80.051
 18.15489    401.725  80.324
 18.16568    435.754  80.611
 18.17647    495.021  81.117
 18.18726    576.136  81.809
 18.19805    705.587  82.907
 18.20884    915.534  84.664
 18.21963   1313.027   8.790
 18.23042   2096.824   9.397
 18.24122   3236.778  10.215
 18.25201   4517.397  11.062
 18.26279   5230.988  11.505
 18.27359   4636.387  11.132
 18.28438   3241.205  10.209
 18.29517   2003.014   9.315
 18.30596   1250.780   8.727
 18.31675    830.599  83.806
 18.32754    581.687  81.680
 18.33833    410.708  80.184
 18.34912    295.988  79.161
 18.35991    214.005   7.842
 18.37070    167.209  77.987
 18.38149    138.992  77.721
 18.39228     83.034  77.203
 18.40307     18.643   7.661
 18.41386     -1.169   7.641
 18.42465      1.778   7.643
 18.43544     13.512   7.652
 18.44623     15.944  76.531
 18.45702     -7.995  76.299
 18.46781    -36.630  76.025
 18.47860    -49.482  75.894
 18.48939    -52.686  75.852
 18.50018    -38.824  75.966
 18.51097    -27.837  76.053
 18.52176    -41.352   7.592
 18.53256    -32.449   7.598
 18.54335      6.146  76.321
 18.55414     52.192  76.724
 18.56493    153.047  77.615
 18.57572    290.441  78.815
 18.58651    391.265   7.968
 18.59730    439.204   8.008
 18.60809    407.120  79.785
 18.61888    320.861  79.019
 18.62967    205.936  77.993
 18.64046    128.346  77.288
 18.65125     91.963  76.948
 18.66204     59.509  76.641
 18.67283     44.240   7.649
 18.68362     82.126   7.681
 18.69441    134.858  77.266
 18.70520    159.701  77.470
 18.71599    229.241  78.067
 18.72678    355.917  79.155
 18.73757    528.731  80.620
 18.74836    642.527  81.563
 18.75915    604.271  81.222
 18.76994    439.083  79.800
 18.78073    274.573  78.359
 18.79153    181.897  77.528
 18.80232    146.409  77.197
 18.81311    138.822  77.112
 18.82390    135.886  77.068
 18.83469    142.500  77.108
 18.84548    163.182  77.272
 18.85627    193.284  77.518
 18.86706    256.851   7.805
 18.87785    376.340  79.070
 18.88864    540.496  80.448
 18.89943    649.502  81.343
 18.91022    626.586  81.130
 18.92101    531.465  80.310
 18.93180    426.065  79.394
 18.94259    384.317  79.016
 18.95338    440.498  79.475
 18.96417    547.688   8.036
 18.97496    761.639  82.121
 18.98575   1158.298  85.301
 18.99654   1641.385   8.902
 19.00733   2003.806   9.170
 19.01813   2059.812   9.209
 19.02892   1758.666   8.983
 19.03971   1335.049   8.657
 19.05050    983.953  83.767
 19.06129    746.648  81.814
 19.07208    597.816  80.558
 19.08287    528.451   7.995
 19.09366    536.803  80.000
 19.10445    616.781  80.645
 19.11524    757.513  81.784
 19.12603    877.712  82.739
 19.13682    870.335  82.655
 19.14761    760.804  81.737
 19.15840    620.151   8.055
 19.16919    485.475  79.402
 19.17998    407.605  78.719
 19.19077    367.344   7.835
 19.20156    356.459  78.235
 19.21235    387.070  78.471
 19.22314    439.406  78.890
 19.23393    481.325  79.218
 19.24472    506.995  79.409
 19.25551    535.753  79.624
 19.26630    605.604  80.180
 19.27710    685.617  80.815
 19.28789    769.199  81.473
 19.29868    907.065  82.563
 19.30946   1099.164  84.066
 19.32026   1341.022  85.925
 19.33105   1707.155   8.868
 19.34184   2290.430   9.290
 19.35263   3267.479   9.959
 19.36342   5257.640  11.201
 19.37421  10724.427  14.059
 19.38500  28736.776  20.870
 19.39579  72592.338  31.850
 19.40658 148721.589  44.928
 19.41737 217126.543  54.033
 19.42816 225679.589  55.051
 19.43895 166970.948  47.490
 19.44974  87986.041  34.843
 19.46053  36319.593  23.097
 19.47132  13603.320  15.310
 19.48211   6157.883  11.679
 19.49290   3675.137  10.183
 19.50370   2776.325   9.583
 19.51448   2503.066   9.390
 19.52527   2682.177   9.511
 19.53607   3261.227   9.899
 19.54686   4090.914  10.430
 19.55765   4497.069  10.679
 19.56844   4068.476  10.409
 19.57923   3099.674   9.778
 19.59002   2105.850   9.087
 19.60081   1428.493  85.828
 19.61160   1087.319   8.316
 19.62239    889.552  81.566
 19.63318    766.479  80.546
 19.64397    690.392  79.899
 19.65476    620.518  79.298
 19.66555    582.402  78.955
 19.67634    560.203  78.742
 19.68713    507.905   7.828
 19.69792    448.869  77.759
 19.70871    399.657  77.317
 19.71950    357.927  76.937
 19.73029    329.831  76.670
 19.74108    306.362  76.442
 19.75187    298.758  76.348
 19.76266    293.526  76.274
 19.77345    258.774  75.949
 19.78424    227.659  75.654
 19.79504    205.306  75.434
 19.80583    175.560  75.149
 19.81662    161.800  75.001
 19.82741    152.913  74.895
 19.83820    125.203  74.627
 19.84899    102.203  74.399
 19.85978    122.717  74.546
 19.87057    131.507  74.593
 19.88136    114.448  74.416
 19.89215    101.322  74.273
 19.90294     90.734  74.152
 19.91373     78.088  74.013
 19.92452     84.060  74.035
 19.93531     86.392  74.026
 19.94610     72.703   7.388
 19.95689     69.341  73.819
 19.96768     76.697  73.853
 19.97847     73.387   7.380
 19.98926     73.211  73.764
 20.00005     62.585  73.643
 20.01084     58.045  73.574
 20.02163     84.813  73.776
 20.03242     96.010  73.844
 20.04322     80.857  73.683
 20.05401     61.524  73.487
 20.06480     44.721  73.312
 20.07559     34.274  73.192
 20.08638     41.360  73.224
 20.09717     44.575  73.223
 20.10796     42.021   7.317
 20.11875     39.479  73.121
 20.12954     11.489  72.849
 20.14033      6.129  72.773
 20.15112     20.935  72.873
 20.16191     30.793  72.930
 20.17270     14.375  72.759
 20.18349    -10.384  72.515
 20.19428     -1.106   7.257
 20.20507      3.714  72.581
 20.21586     -2.326  72.500
 20.22665    -18.697  72.329
 20.23744    -32.418  72.181
 20.24823    -21.889  72.245
 20.25902     -6.204  72.354
 20.26981    -16.081   7.224
 20.28061    -27.971  72.108
 20.29140    -20.763  72.144
 20.30219    -31.051   7.203
 20.31298    -30.420  72.004
 20.32377    -16.403  72.099
 20.33456    -15.596   7.208
 20.34535    -17.809   7.203
 20.35614    -16.862  72.014
 20.36693      2.699  72.157
 20.37772     24.838  72.322
 20.38851     33.942  72.374
 20.39930     42.184   7.242
 20.41009     55.555  72.508
 20.42088     75.525  72.653
 20.43167     76.145  72.632
 20.44246     68.570  72.541
 20.45325     83.319  72.642
 20.46404    124.658  72.970
 20.47483    136.035  73.041
 20.48562    108.780  72.783
 20.49641    141.395   7.304
 20.50720    185.868  73.388
 20.51799    170.650  73.234
 20.52878    187.490   7.335
 20.53958    221.096  73.610
 20.55036    249.757  73.826
 20.56115    319.372  74.384
 20.57194    435.220  75.318
 20.58274    591.815  76.570
 20.59353    700.200  77.416
 20.60432    755.245  77.830
 20.61511    727.886  77.587
 20.62590    592.540  76.477
 20.63669    459.318  75.369
 20.64748    413.557  74.970
 20.65827    402.527  74.856
 20.66906    400.208   7.481
 20.67985    437.344  75.095
 20.69064    486.278  75.472
 20.70143    511.364  75.654
 20.71222    555.775  75.991
 20.72301    635.832   7.661
 20.73380    703.272  77.129
 20.74459    762.620  77.577
 20.75538    860.783  78.327
 20.76617    979.709  79.230
 20.77696   1109.072  80.202
 20.78775   1264.205  81.356
 20.79855   1417.307  82.477
 20.80934   1588.561  83.714
 20.82013   1771.180  85.015
 20.83092   1943.722  86.223
 20.84171   2080.133   8.716
 20.85250   2182.839   8.785
 20.86329   2279.106   8.850
 20.87408   2403.402   8.932
 20.88487   2640.069   9.090
 20.89566   3091.392   9.385
 20.90645   3931.969   9.913
 20.91724   5505.185  10.833
 20.92803   7632.302  11.965
 20.93882   9414.286  12.835
 20.94961   9994.344  13.103
 20.96040   8759.669  12.514
 20.97119   6769.932  11.506
 20.98198   5273.358  10.685
 20.99277   4282.876  10.105
 21.00356   3782.186   9.798
 21.01435   3555.824   9.654
 21.02514   3531.629   9.637
 21.03593   3701.465   9.741
 21.04672   4064.477   9.961
 21.05752   4588.887  10.271
 21.06831   5139.997  10.588
 21.07910   5543.429  10.813
 21.08989   6019.065  11.072
 21.10068   7149.996  11.669
 21.11147   9584.789  12.861
 21.12226  12731.222  14.255
 21.13305  15419.035  15.343
 21.14384  14484.765  14.969
 21.15463  10684.734  13.353
 21.16542   7561.188  11.862
 21.17621   5429.504  10.726
 21.18700   4175.526   9.997
 21.19779   3450.631   9.551
 21.20858   2987.214   9.253
 21.21937   2614.521   9.007
 21.23016   2302.519   8.795
 21.24095   2059.945  86.270
 21.25174   1869.580  84.924
 21.26253   1663.950  83.449
 21.27332   1455.071  81.925
 21.28411   1302.154  80.789
 21.29490   1157.219  79.698
 21.30570   1024.782  78.688
 21.31649    930.509  77.958
 21.32728    813.507  77.048
 21.33807    695.753  76.121
 21.34886    626.803  75.569
 21.35965    563.493  75.059
 21.37044    522.293  74.722
 21.38123    478.113  74.361
 21.39202    424.141  73.920
 21.40281    407.692  73.778
 21.41360    380.734  73.553
 21.42439    344.618  73.253
 21.43518    323.446  73.074
 21.44597    311.627  72.970
 21.45676    261.091  72.552
 21.46755    216.954  72.184
 21.47834    204.356  72.074
 21.48913    177.151  71.844
 21.49992    152.522  71.635
 21.51071    128.323  71.430
 21.52150    107.903  71.256
 21.53229    105.256  71.228
 21.54309    109.957  71.262
 21.55388    106.574  71.229
 21.56467    103.321  71.197
 21.57546    110.394  71.251
 21.58625    140.967   7.150
 21.59704    180.102   7.181
 21.60783    250.186  72.381
 21.61862    377.841  73.404
 21.62941    491.639  74.302
 21.64020    534.337  74.633
 21.65099    456.953  74.018
 21.66178    268.316  72.506
 21.67257    152.817  71.565
 21.68336    132.501  71.395
 21.69415    178.715  71.770
 21.70494    263.150  72.450
 21.71573    343.490  73.092
 21.72652    413.733  73.647
 21.73731    398.725  73.525
 21.74810    284.469  72.610
 21.75889    151.960  71.536
 21.76968     89.913  71.028
 21.78047     40.307  70.619
 21.79126     -5.270  70.241
 21.80205      3.649  70.314
 21.81284      1.322  70.294
 21.82363    -28.528  70.046
 21.83442    -36.723  69.978
 21.84522    -18.232  70.130
 21.85601    -32.093  70.015
 21.86680    -40.878  69.943
 21.87759    -20.150  70.114
 21.88838    -26.660  70.060
 21.89917    -29.022  70.041
 21.90996    -15.379  70.153
 21.92075     -0.352  70.277
 21.93154      6.339  70.332
 21.94233     -7.811  70.217
 21.95312     -0.739  70.275
 21.96391     35.387  70.571
 21.97470     28.015   7.051
 21.98549     -2.864  70.259
 21.99628    -21.822  70.104
 22.00707    -20.546  70.116
 22.01786    -10.794  70.197
 22.02865     16.693  70.422
 22.03944     24.545  70.487
 22.05023     14.923  70.409
 22.06103     26.667  70.506
 22.07182     42.437  70.635
 22.08261     61.703  70.792
 22.09340     80.612  70.945
 22.10419    114.920  71.222
 22.11498    133.710  71.373
 22.12577    156.629  71.557
 22.13656    191.565  71.836
 22.14735    223.480  72.090
 22.15814    235.895  72.188
 22.16893    210.274  71.985
 22.17972    230.323  72.144
 22.19051    282.362  72.554
 22.20130    321.937  72.864
 22.21209    359.100  73.153
 22.22288    394.843  73.430
 22.23367    435.472  73.744
 22.24446    492.206  74.179
 22.25525    536.914  74.519
 22.26604    574.142  74.801
 22.27683    624.549  75.181
 22.28762    629.288  75.215
 22.29841    658.351  75.431
 22.30920    718.751  75.882
 22.32000    742.482   7.606
 22.33079    773.922  76.287
 22.34158    776.388  76.303
 22.35236    782.309  76.344
 22.36316    800.430  76.475
 22.37395    756.562  76.148
 22.38474    710.735  75.804
 22.39553    686.955  75.624
 22.40632    638.422  75.259
 22.41711    608.765  75.033
 22.42790    585.879  74.859
 22.43869    553.622   7.461
 22.44948    533.906  74.461
 22.46027    523.080  74.377
 22.47106    515.958  74.320
 22.48185    501.824  74.210
 22.49264    527.172  74.399
 22.50343    587.943  74.853
 22.51422    660.643  75.392
 22.52501    721.205  75.837
 22.53580    717.381  75.804
 22.54659    672.909  75.471
 22.55738    576.609  74.749
 22.56817    488.143  74.079
 22.57896    469.754  73.936
 22.58976    470.073  73.934
 22.60055    452.894  73.800
 22.61134    454.331  73.807
 22.62213    478.716  73.986
 22.63292    508.116   7.420
 22.64371    554.818  74.547
 22.65450    605.485  74.919
 22.66529    666.156  75.363
 22.67608    765.699   7.609
 22.68687    891.447  76.995
 22.69766   1057.579  78.178
 22.70845   1309.507  79.940
 22.71924   1696.826  82.578
 22.73003   2330.513   8.672
 22.74082   3332.697   9.290
 22.75161   5088.720  10.283
 22.76240   9496.328  12.432
 22.77319  23100.427  17.468
 22.78398  58869.763  26.475
 22.79477 122417.873  37.465
 22.80557 192751.776  46.697
 22.81636 221118.201  49.930
 22.82715 186169.403  45.888
 22.83793 112462.705  35.928
 22.84873  51483.794  24.846
 22.85952  19990.437  16.422
 22.87031   8546.295  11.976
 22.88110   4512.206   9.946
 22.89189   2940.029   9.032
 22.90268   2182.085  85.555
 22.91347   1750.260  82.717
 22.92426   1486.243  80.929
 22.93505   1313.855  79.736
 22.94584   1232.547  79.161
 22.95663   1224.339  79.090
 22.96742   1274.367  79.422
 22.97821   1379.287  80.129
 22.98900   1583.737  81.500
 22.99979   2002.012  84.249
 23.01058   2692.093   8.860
 23.02137   3431.117   9.304
 23.03216   3737.796   9.480
 23.04295   3431.201   9.300
 23.05374   2773.114   8.903
 23.06453   2125.501  84.942
 23.07532   1766.806  82.586
 23.08611   1589.238  81.387
 23.09690   1534.548   8.100
 23.10770   1526.531  80.929
 23.11849   1577.529  81.253
 23.12928   1662.861  81.804
 23.14007   1796.163  82.667
 23.15086   2015.279   8.408
 23.16165   2259.904  85.622
 23.17244   2528.393   8.729
 23.18323   2955.445   8.988
 23.19402   3638.048   9.389
 23.20481   4785.359  10.028
 23.21560   6651.858  10.988
 23.22639   8948.694  12.064
 23.23718  11103.360  12.993
 23.24797  11980.645  13.350
 23.25876  10761.014  12.842
 23.26955   8101.823  11.666
 23.28034   5582.680  10.430
 23.29113   3838.577   9.481
 23.30192   2915.001   8.937
 23.31271   2377.360  86.037
 23.32351   1978.726  83.475
 23.33430   1676.787  81.477
 23.34509   1433.323  79.825
 23.35588   1196.453  78.186
 23.36667   1020.877  76.942
 23.37746    885.273  75.963
 23.38825    769.152  75.111
 23.39904    685.420   7.448
 23.40983    584.490  73.726
 23.42062    480.744  72.941
 23.43141    395.078  72.281
 23.44220    334.718  71.806
 23.45299    283.969  71.399
 23.46378    243.337  71.066
 23.47457    196.006   7.068
 23.48536    147.678  70.286
 23.49615    102.727  69.914
 23.50694     77.112  69.690
 23.51773     60.252   6.953
 23.52852      3.317  69.063
 23.53931    -19.657  68.855
 23.55010    -14.257  68.867
 23.56089    -23.722  68.763
 23.57168    -44.890  68.568
 23.58248    -78.900  68.272
 23.59327    -99.347  68.081
 23.60405    -85.350  68.158
 23.61484    -72.787  68.224
 23.62564    -65.114  68.250
 23.63643    -61.650  68.244
 23.64722    -76.379  68.096
 23.65801    -85.633  67.990
 23.66880    -63.717   6.813
 23.67959    -37.849  68.292
 23.69038     -7.247  68.494
 23.70117     32.253  68.764
 23.71196     43.962  68.818
 23.72275    100.650  69.216
 23.73354    188.603  69.848
 23.74433    262.522  70.369
 23.75512    395.517  71.323
 23.76591    637.184  73.053
 23.77670   1056.753  75.987
 23.78749   1980.616   8.211
 23.79828   4557.226   9.722
 23.80907  11610.687  12.991
 23.81986  25597.199  17.775
 23.83065  45524.128  22.924
 23.84144  61839.871  26.399
 23.85224  63357.514  26.692
 23.86303  47752.360  23.410
 23.87382  26752.243  18.087
 23.88461  12328.533  13.247
 23.89540   5937.235  10.406
 23.90619   3576.592   9.135
 23.91698   2464.084  84.675
 23.92777   1694.812  79.728
 23.93856   1154.587  76.053
 23.94935    769.856  73.313
 23.96014    528.495  71.525
 23.97093    379.141  70.380
 23.98172    266.126  69.491
 23.99251    156.438  68.616
 24.00330     94.036  68.093
 24.01409     67.615  67.844
 24.02488     33.435  67.535
 24.03567     18.424  67.372
 24.04646     -0.539  67.178
 24.05725    -12.265  67.040
 24.06805    -11.151  67.001
 24.07884    -45.719  66.684
 24.08962    -61.892  66.509
 24.10041    -46.764  66.579
 24.11121    -44.991  66.543
 24.12200    -30.384  66.608
 24.13279     12.414  66.892
 24.14358     41.998  67.071
 24.15437     71.295  67.247
 24.16516    122.876  67.594
 24.17595    194.752  68.092
 24.18674    326.474  69.036
 24.19753    494.720  70.236
 24.20832    682.986  71.559
 24.21911    878.015  72.905
 24.22990    998.017  73.700
 24.24069    933.234  73.194
 24.25148    765.558  71.950
 24.26227    577.164  70.535
 24.27306    390.410  69.104
 24.28385    299.901  68.373
 24.29464    290.791  68.251
 24.30543    319.840  68.417
 24.31622    381.457  68.826
 24.32701    455.218  69.322
 24.33780    521.843  69.761
 24.34859    548.934  69.907
 24.35938    504.580  69.527
 24.37018    478.370  69.280
 24.38097    467.419   6.914
 24.39176    466.146  69.081
 24.40255    532.822  69.520
 24.41334    699.716  70.685
 24.42413    995.951  72.746
 24.43492   1418.907  75.611
 24.44571   1884.914  78.648
 24.45650   2012.080  79.418
 24.46729   1783.053  77.877
 24.47808   1392.866   7.522
 24.48887   1005.635  72.489
 24.49966    717.036  70.373
 24.51045    542.688  69.042
 24.52124    420.943  68.081
 24.53203    321.962  67.279
 24.54282    269.721  66.826
 24.55361    242.807  66.564
 24.56440    228.501  66.398
 24.57519    192.305  66.063
 24.58599    161.267  65.766
 24.59678    140.286  65.546
 24.60757    151.400  65.575
 24.61836    151.498   6.552
 24.62915    140.272  65.373
 24.63994    171.262  65.556
 24.65073    188.000   6.563
 24.66152    197.231  65.641
 24.67231    211.203  65.691
 24.68310    231.487  65.789
 24.69389    218.683  65.633
 24.70468    215.886  65.553
 24.71547    249.792   6.576
 24.72626    282.223  65.948
 24.73705    332.261  66.272
 24.74784    361.064  66.434
 24.75863    421.811   6.684
 24.76942    497.919  67.351
 24.78021    536.894  67.585
 24.79100    607.860  68.055
 24.80179    686.957  68.581
 24.81258    771.548  69.142
 24.82337    869.823  69.797
 24.83416    999.551   7.067
 24.84495   1135.812  71.577
 24.85574   1243.454  72.273
 24.86653   1406.066  73.338
 24.87732   1667.295   7.505
 24.88812   1959.781   7.693
 24.89891   2321.495  79.193
 24.90970   2838.336  82.345
 24.92049   3658.628   8.714
 24.93128   4958.301   9.425
 24.94207   6793.490  10.348
 24.95286   8483.964  11.130
 24.96365   8980.606  11.346
 24.97444   8125.072  10.957
 24.98523   6325.341  10.099
 24.99602   4567.662   9.185
 25.00681   3528.662  85.976
 25.01760   3032.282   8.300
 25.02839   2762.474  81.311
 25.03918   2698.595  80.867
 25.04997   2841.143  81.689
 25.06076   3225.563  83.947
 25.07155   4020.871   8.848
 25.08234   5251.247   9.509
 25.09313   6381.402  10.077
 25.10392   6655.260  10.206
 25.11472   5717.589   9.735
 25.12551   4315.156   8.987
 25.13630   3101.251  82.858
 25.14709   2383.090  78.396
 25.15788   1973.091  75.712
 25.16867   1743.742  74.147
 25.17946   1640.279  73.404
 25.19025   1586.972   7.299
 25.20104   1534.053  72.585
 25.21183   1461.692  72.042
 25.22262   1357.075  71.272
 25.23341   1248.678  70.468
 25.24420   1120.147  69.513
 25.25499   1021.125  68.758
 25.26578    990.104  68.486
 25.27657    985.719  68.406
 25.28736    994.388   6.842
 25.29815   1070.304  68.916
 25.30894   1262.656  70.228
 25.31973   1630.948   7.271
 25.33052   2082.698  75.659
 25.34131   2389.997   7.758
 25.35210   2361.937  77.360
 25.36289   1976.999   7.483
 25.37369   1474.678  71.420
 25.38448   1091.374  68.694
 25.39527    856.357  66.951
 25.40606    729.108  65.969
 25.41685    645.535  65.301
 25.42764    585.452  64.804
 25.43843    527.216  64.319
 25.44922    493.143  64.015
 25.46001    455.701  63.685
 25.47080    415.864  63.335
 25.48159    405.154  63.209
 25.49238    383.347  62.998
 25.50317    362.842  62.797
 25.51396    352.384  62.673
 25.52475    355.151  62.653
 25.53554    392.846  62.904
 25.54633    433.222  63.175
 25.55712    493.000  63.593
 25.56791    542.325  63.929
 25.57870    512.760  63.664
 25.58949    446.356  63.116
 25.60028    393.093  62.667
 25.61107    378.819  62.518
 25.62186    403.381  62.670
 25.63266    454.539  63.027
 25.64345    554.017   6.375
 25.65424    665.019  64.551
 25.66503    764.423  65.256
 25.67582    812.111   6.557
 25.68661    749.416  65.074
 25.69740    600.252  63.922
 25.70819    474.442  62.929
 25.71898    375.619  62.132
 25.72977    300.448  61.512
 25.74056    269.961  61.239
 25.75135    257.509  61.109
 25.76214    245.769  60.984
 25.77293    232.352  60.846
 25.78372    249.737  60.952
 25.79451    270.613  61.085
 25.80530    266.464  61.022
 25.81609    293.756  61.207
 25.82688    363.620  61.724
 25.83767    414.541  62.089
 25.84847    470.136  62.489
 25.85926    494.039  62.644
 25.87005    453.122   6.230
 25.88084    395.811  61.833
 25.89163    342.142  61.389
 25.90242    332.502  61.287
 25.91321    340.727  61.326
 25.92400    337.070  61.272
 25.93479    353.708  61.377
 25.94558    361.234  61.411
 25.95637    406.859  61.741
 25.96716    457.649  62.109
 25.97795    492.030  62.349
 25.98874    523.470  62.567
 25.99953    557.077  62.800
 26.01032    650.700  63.485
 26.02111    815.147  64.685
 26.03190   1069.429  66.509
 26.04269   1493.862  69.459
 26.05348   2196.322  74.092
 26.06427   2967.355  78.863
 26.07506   3364.241   8.120
 26.08585   3118.623  79.725
 26.09664   2443.963  75.579
 26.10743   1664.832  70.497
 26.11822   1142.832  66.874
 26.12901    881.122  64.975
 26.13980    762.732  64.088
 26.15060    736.948  63.881
 26.16139    721.822  63.753
 26.17218    671.313  63.361
 26.18297    623.835   6.299
 26.19376    559.503  62.491
 26.20455    475.334   6.184
 26.21534    398.619  61.235
 26.22613    332.911  60.713
 26.23692    284.162  60.321
 26.24771    232.938  59.907
 26.25850    214.076  59.747
 26.26929    215.071  59.743
 26.28008    210.424  59.696
 26.29087    226.147  59.810
 26.30166    214.960  59.712
 26.31245    203.703  59.613
 26.32324    213.884  59.684
 26.33403    209.818  59.644
 26.34482    202.002  59.574
 26.35561    200.569   5.955
 26.36640    200.067  59.543
 26.37720    195.357  59.498
 26.38799    211.685  59.620
 26.39878    273.016   6.009
 26.40957    333.242   6.055
 26.42036    364.669  60.790
 26.43115    416.517  61.182
 26.44194    445.274  61.395
 26.45273    418.581  61.186
 26.46352    331.086  60.509
 26.47431    215.989  59.609
 26.48510    122.901   5.887
 26.49589     96.952  58.663
 26.50668     96.541  58.656
 26.51747     80.171  58.523
 26.52826     60.308  58.362
 26.53905     45.271  58.240
 26.54984     38.819  58.187
 26.56063     31.815  58.129
 26.57142    -10.047  57.792
 26.58221    -31.351   5.762
 26.59300     -0.597  57.867
 26.60379     25.147  58.072
 26.61458     24.197   5.806
 26.62537      5.795  57.917
 26.63617      1.340  57.882
 26.64695    -33.316  57.604
 26.65774    -22.917  57.688
 26.66854     -1.709  57.859
 26.67933    -24.582   5.768
 26.69012     -8.824  57.805
 26.70091     39.510  58.191
 26.71170     70.856  58.441
 26.72249    113.359  58.777
 26.73328    229.572  59.684
 26.74407    343.729  60.561
 26.75486    373.647  60.790
 26.76565    319.325  60.377
 26.77644    208.759  59.529
 26.78723    116.956  58.816
 26.79802     76.684  58.502
 26.80881     42.052  58.232
 26.81960     46.446  58.269
 26.83039    106.998  58.748
 26.84118    194.670  59.432
 26.85197    243.714  59.812
 26.86276    280.948  60.099
 26.87355    307.013  60.300
 26.88434    276.139  60.067
 26.89514    224.297  59.672
 26.90593    190.627  59.415
 26.91672    148.902  59.096
 26.92751    101.778  58.732
 26.93830     95.056  58.683
 26.94909    125.544   5.892
 26.95988    163.410  59.219
 26.97067    177.669  59.332
 26.98146    190.282  59.432
 26.99225    177.695  59.338
 27.00304    133.662  59.001
 27.01383     83.597  58.615
 27.02462     56.944  58.411
 27.03541     62.873  58.460
 27.04620     76.250  58.567
 27.05699     74.535   5.856
 27.06778     50.100  58.370
 27.07857     58.755  58.440
 27.08936     86.382  58.657
 27.10015    103.843  58.795
 27.11095     71.186  58.544
 27.12174     51.870  58.397
 27.13252     46.210  58.355
 27.14331     64.058  58.496
 27.15411     46.674  58.364
 27.16490     12.739  58.102
 27.17569     14.031   5.811
 27.18648     15.335  58.126
 27.19727      3.896  58.039
 27.20806     -3.202   5.799
 27.21885     23.794  58.197
 27.22964     29.477  58.243
 27.24043     -6.064  57.968
 27.25122    -14.222   5.791
 27.26201      1.561  58.029
 27.27280    -18.768  57.872
 27.28359     -7.019  57.964
 27.29438     26.158  58.221
 27.30517     30.004  58.251
 27.31596     23.365  58.200
 27.32675     17.771  58.156
 27.33754      0.871  58.025
 27.34833     15.603  58.139
 27.35912     42.398  58.344
 27.36991     55.612  58.445
 27.38070     72.577  58.574
 27.39149     83.742  58.657
 27.40228     90.047  58.704
 27.41308    121.754  58.943
 27.42387    144.040  59.110
 27.43466    160.160  59.229
 27.44545    201.748  59.539
 27.45624    211.631  59.610
 27.46703    215.983  59.639
 27.47782    246.987  59.867
 27.48861    288.458  60.171
 27.49940    350.394  60.624
 27.51019    467.952   6.148
 27.52098    568.634  62.199
 27.53177    714.131  63.228
 27.54256    962.039  64.945
 27.55335   1576.671  69.026
 27.56414   3396.795  79.903
 27.57493   8006.764  10.240
 27.58572  15570.793  13.120
 27.59651  23508.203  15.578
 27.60730  26526.683  16.414
 27.61809  22074.317  15.157
 27.62888  13469.730  12.377
 27.63968   6452.079   9.530
 27.65047   2797.210  76.388
 27.66126   1360.452  67.517
 27.67205    793.353   6.367
 27.68284    552.834  61.966
 27.69363    470.033  61.361
 27.70442    389.442  60.767
 27.71521    324.903   6.028
 27.72600    347.456  60.439
 27.73679    415.748  60.926
 27.74758    517.449  61.648
 27.75837    627.962  62.424
 27.76916    693.261  62.872
 27.77995    707.845  62.962
 27.79074    727.272  63.085
 27.80153    734.698  63.124
 27.81232    775.469  63.394
 27.82311    911.879  64.322
 27.83390   1178.143  66.106
 27.84469   1400.739  67.557
 27.85548   1495.486  68.156
 27.86627   1314.819  66.964
 27.87706   1041.735  65.131
 27.88785    861.884   6.389
 27.89864    828.054  63.643
 27.90943    915.143  64.225
 27.92022   1038.377  65.046
 27.93102   1075.462  65.279
 27.94181    953.613  64.439
 27.95260    768.980  63.154
 27.96339    592.720  61.903
 27.97418    462.833  60.961
 27.98497    368.158   6.026
 27.99576    283.650  59.628
 28.00655    227.768  59.200
 28.01734    192.204  58.920
 28.02813    170.480  58.741
 28.03892    144.816  58.533
 28.04971    150.698  58.560
 28.06050    170.147  58.687
 28.07129    151.180  58.528
 28.08208    131.825  58.366
 28.09287    105.988  58.154
 28.10366     91.475  58.027
 28.11445     91.710  58.011
 28.12524     73.934  57.859
 28.13603     54.250  57.692
 28.14682     46.800  57.617
 28.15762     35.659  57.514
 28.16841     15.390  57.342
 28.17919      7.297   5.726
 28.18999      2.384  57.205
 28.20078     10.486  57.247
 28.21157     21.641  57.312
 28.22236     30.539  57.360
 28.23315     22.057  57.277
 28.24394    -10.256  57.012
 28.25473    -21.193  56.909
 28.26552    -36.238  56.775
 28.27631    -19.284  56.885
 28.28710     -8.977  56.943
 28.29789     -3.394  56.966
 28.30868     12.969  57.070
 28.31947     -1.047  56.944
 28.33026     -4.948  56.894
 28.34105      3.989  56.942
 28.35184     14.151  56.999
 28.36263     13.889  56.977
 28.37343     24.614  57.039
 28.38421     30.975  57.067
 28.39500     47.206   5.717
 28.40579     53.438  57.197
 28.41659     49.224  57.146
 28.42738     35.982  57.027
 28.43817     15.136  56.850
 28.44896    -28.275  56.502
 28.45975    -44.386  56.361
 28.47054    -36.648   5.640
 28.48133    -11.437  56.573
 28.49212    -21.857  56.476
 28.50291    -69.223  56.097
 28.51370    -74.219  56.041
 28.52449    -59.657  56.134
 28.53528    -66.579  56.063
 28.54607    -35.307  56.283
 28.55686     -8.331  56.470
 28.56765    -11.404  56.430
 28.57844    -11.716  56.410
 28.58923    -36.858  56.203
 28.60002    -49.820  56.088
 28.61081    -19.047  56.305
 28.62160    -20.982  56.275
 28.63239      3.955  56.448
 28.64318     43.721  56.731
 28.65397     57.094  56.816
 28.66476     68.944  56.890
 28.67556     46.664  56.709
 28.68635     26.682  56.545
 28.69714      5.329  56.371
 28.70793     -3.067  56.294
 28.71872    -12.751  56.208
 28.72951    -25.764  56.097
 28.74030      5.099  56.318
 28.75109     -1.097  56.260
 28.76188     -7.239  56.202
 28.77267     31.498  56.482
 28.78346     83.581  56.861
 28.79425    118.068  57.107
 28.80504    145.219  57.298
 28.81583    146.765  57.300
 28.82662    128.124   5.715
 28.83741     88.657   5.685
 28.84820     43.568   5.651
 28.85899     62.573  56.644
 28.86978     72.300  56.710
 28.88057     52.987  56.560
 28.89136     72.773  56.701
 28.90216     80.086   5.675
 28.91295     84.666  56.780
 28.92374     74.528  56.701
 28.93453     64.313  56.622
 28.94532     66.624  56.636
 28.95611     54.797  56.546
 28.96690     53.791   5.654
 28.97769     29.075  56.352
 28.98848     -3.590  56.108
 28.99927      3.377  56.161
 29.01006     45.339  56.474
 29.02085     36.657  56.412
 29.03164     13.367  56.241
 29.04243      8.776  56.209
 29.05322      9.046   5.622
 29.06401     14.792  56.262
 29.07480     23.443  56.331
 29.08559      9.892  56.236
 29.09638     24.233  56.349
 29.10717     48.383  56.535
 29.11796     65.350  56.667
 29.12875     99.450  56.926
 29.13954    117.689  57.068
 29.15033    157.901  57.370
 29.16112    201.131  57.693
 29.17191    233.621  57.937
 29.18270    218.652  57.840
 29.19350    168.130  57.488
 29.20429    114.129  57.108
 29.21508     58.188  56.713
 29.22587     38.452  56.583
 29.23666     25.251  56.501
 29.24745     14.202  56.436
 29.25824      3.252  56.372
 29.26903     -9.401  56.297
 29.27982     -8.785  56.320
 29.29061    -21.734  56.243
 29.30140    -45.402  56.089
 29.31219    -33.543  56.197
 29.32298     -6.281  56.419
 29.33377     17.991  56.618
 29.34456      3.648  56.536
 29.35535    -18.154  56.400
 29.36614    -26.655  56.361
 29.37693    -30.781  56.356
 29.38772    -51.309  56.231
 29.39851    -31.020  56.406
 29.40930    -25.524  56.473
 29.42009    -50.583  56.317
 29.43088    -31.562  56.485
 29.44168    -24.037  56.568
 29.45247    -32.865  56.534
 29.46326     -7.078  56.751
 29.47405      6.443  56.880
 29.48484    -10.780  56.786
 29.49563     -3.437  56.871
 29.50642      3.257  56.952
 29.51721     21.566  57.117
 29.52800     63.622   5.745
 29.53879    114.128  57.845
 29.54958    144.055  58.091
 29.56037    163.011  58.259
 29.57116    122.730  58.009
 29.58195     44.522  57.491
 29.59274     -2.507  57.192
 29.60353      3.667  57.273
 29.61432    -25.194  57.105
 29.62511    -38.668  57.047
 29.63590    -23.222  57.197
 29.64669      6.617  57.449
 29.65748     17.710  57.568
 29.66827     24.104  57.653
 29.67907     47.281  57.858
 29.68986     49.137  57.911
 29.70065     41.738  57.901
 29.71144     31.857   5.787
 29.72223     -5.248  57.653
 29.73302    -33.092  57.499
 29.74381    -47.265  57.442
 29.75460    -35.165  57.571
 29.76539    -40.216  57.580
 29.77618    -54.339  57.524
 29.78697    -58.936  57.536
 29.79776    -41.068  57.707
 29.80855    -41.837  57.746
 29.81934    -54.134  57.705
 29.83013    -16.058   5.802
 29.84092     31.539  58.394
 29.85171     56.329  58.610
 29.86250     45.749  58.582
 29.87329     -1.343  58.301
 29.88408    -19.936  58.218
 29.89487    -16.786  58.286
 29.90566     -2.422  58.431
 29.91645     11.004  58.569
 29.92724      9.991  58.608
 29.93804     40.009  58.860
 29.94883     57.134  59.022
 29.95962     48.725  59.010
 29.97041     97.738  59.389
 29.98120    172.606  59.939
 29.99199    212.592  60.251
 30.00278    264.870  60.642
 30.01357    367.102  61.359
 30.02436    425.861  61.785
 30.03515    472.562  62.129
 30.04594    614.763  63.083
 30.05673    905.471  64.946
 30.06752   1358.777  67.727
 30.07831   2338.833  73.337
 30.08910   5013.165   8.677
 30.09989  12285.066  11.560
 30.11068  28044.080  16.124
 30.12147  50788.545  21.029
 30.13226  68088.716  24.097
 30.14305  66184.060  23.775
 30.15384  47166.944  20.319
 30.16464  25692.859  15.522
 30.17543  11862.922  11.415
 30.18621   5266.650   8.809
 30.19701   2572.418  74.898
 30.20780   1418.132   6.850
 30.21859    866.800  65.234
 30.22938    519.305  63.106
 30.24017    323.680  61.891
 30.25096    210.658   6.119
 30.26175    106.587  60.545
 30.27254     49.736  60.204
 30.28333     -9.827  59.842
 30.29412    -30.001  59.741
 30.30491    -24.852  59.808
 30.31570    -48.544  59.682
 30.32649   -108.485  59.312
 30.33728   -121.012  59.259
 30.34807    -77.932  59.576
 30.35886    -58.747  59.733
 30.36965    -21.210  60.009
 30.38044    -69.503  59.716
 30.39123    -90.229  59.604
 30.40202    -80.258  59.695
 30.41281    -93.704  59.630
 30.42360    -73.086  59.790
 30.43439    -33.239  60.075
 30.44518     -7.779  60.263
 30.45598    -12.771  60.250
 30.46677    -46.498  60.047
 30.47756    -21.814  60.228
 30.48835    -11.398  60.313
 30.49914     38.138  60.652
 30.50993     18.778  60.540
 30.52072     12.102   6.051
 30.53151     25.148  60.607
 30.54230    -23.029  60.305
 30.55309    -17.580  60.351
 30.56388      6.709  60.518
 30.57467     13.685  60.571
 30.58546    -27.012  60.314
 30.59625    -38.489  60.245
 30.60704    -44.062  60.213
 30.61783    -70.468  60.044
 30.62862    -80.665  59.980
 30.63941    -62.539  60.100
 30.65020    -77.956  60.000
 30.66099    -72.342  60.036
 30.67178    -54.447  60.150
 30.68257    -36.290  60.265
 30.69337     79.458  61.009
 30.70416    173.672  61.604
 30.71495    180.640  61.641
 30.72574    186.669  61.671
 30.73653    156.671  61.472
 30.74732     86.208  61.011
 30.75811     32.760  60.657
 30.76890      3.741  60.457
 30.77969     10.488  60.487
 30.79048    -14.366  60.312
 30.80127     24.206   6.054
 30.81206     86.062  60.925
 30.82285    198.201  61.620
 30.83364    357.293   6.260
 30.84443    477.210  63.320
 30.85522    712.609  64.730
 30.86601   1159.637  67.341
 30.87680   1975.760  71.876
 30.88759   3834.838   8.129
 30.89838   8778.372  10.220
 30.90917  20692.330  14.032
 30.91996  41818.150  18.994
 30.93075  63593.190  23.012
 30.94155  71042.487  24.230
 30.95234  58045.005  22.047
 30.96313  35664.117  17.675
 30.97392  17505.251  13.099
 30.98471   8069.578   9.922
 30.99550   4034.510  81.942
 31.00629   2306.062   7.329
 31.01708   1373.200  68.161
 31.02787    892.273  65.342
 31.03866    642.745  63.814
 31.04945    519.236  63.027
 31.06024    415.047  62.349
 31.07103    292.412  61.549
 31.08182    277.848  61.421
 31.09261    226.329  61.059
 31.10340    188.872  60.784
 31.11419    138.324  60.425
 31.12498    102.879  60.160
 31.13577     60.162   5.985
 31.14656      1.104  59.427
 31.15735     43.926  59.664
 31.16814     38.056   5.959
 31.17893    -20.133   5.917
 31.18972    -28.326  59.078
 31.20052    -41.668  58.951
 31.21131      6.396  59.224
 31.22209    132.429  59.996
 31.23289    175.812  60.233
 31.24368    178.100  60.209
 31.25447    199.069   6.030
 31.26526    182.867  60.163
 31.27605    204.398  60.262
 31.28684    288.292  60.756
 31.29763    400.394  61.421
 31.30842    550.271  62.311
 31.31921    694.556  63.155
 31.33000    886.323  64.270
 31.34079    948.686  64.606
 31.35158    761.134  63.455
 31.36237    592.243  62.398
 31.37316    446.255  61.467
 31.38395    469.082  61.578
 31.39474    506.137  61.776
 31.40553    521.672  61.843
 31.41632    515.363  61.776
 31.42711    446.956  61.326
 31.43790    465.103  61.412
 31.44869    432.115  61.182
 31.45949    410.283  61.022
 31.47028    458.345  61.298
 31.48107    415.753  61.012
 31.49186    445.667  61.177
 31.50265    491.221  61.440
 31.51344    576.259  61.945
 31.52423    612.412  62.149
 31.53502    624.693  62.209
 31.54581    725.579  62.806
 31.55660    846.923  63.520
 31.56739    983.167  64.315
 31.57818   1196.104  65.544
 31.58897   1697.780  68.367
 31.59976   2492.296  72.617
 31.61055   3479.624  77.574
 31.62134   3982.130  79.973
 31.63213   3545.221  77.874
 31.64292   2771.474  74.023
 31.65371   1911.049  69.496
 31.66450   1363.698  66.458
 31.67529   1084.477  64.855
 31.68608    848.635  63.472
 31.69687    619.961  62.104
 31.70766    592.197  61.940
 31.71846    536.264  61.605
 31.72925    469.341  61.201
 31.74004    449.281  61.085
 31.75083    401.276  60.797
 31.76162    384.325  60.701
 31.77241    358.201  60.549
 31.78320    219.434  59.692
 31.79399    177.829  59.441
 31.80478    159.792  59.337
 31.81557     87.079  58.887
 31.82636     49.772  58.660
 31.83715     14.812  58.446
 31.84794     -0.809   5.836
 31.85873     -7.061   5.832
 31.86952    -32.373  58.169
 31.88031    -40.630  58.122
 31.89110     44.833  58.673
 31.90189    102.401  59.040
 31.91268     74.477  58.863
 31.92347     -7.378  58.339
 31.93426      2.574  58.398
 31.94505    -25.264  58.211
 31.95585     15.876   5.846
 31.96664    133.112  59.188
 31.97743    198.636  59.578
 31.98822    135.911  59.159
 31.99901    178.748  59.398
 32.00980    193.393  59.453
 32.02059    106.262  58.863
 32.03138     -6.053  58.100
 32.04217     -8.439   5.803
 32.05296    -23.255  57.868
 32.06375     34.790  58.166
 32.07454    -78.592  57.354
 32.08533   -195.700  56.498
 32.09612    -32.740  57.454
 32.10691      0.658   5.755
 32.11770    -66.590  56.991
 32.12849      6.606  57.325
 32.13928     73.465  57.601
 32.15007     15.072  57.056
 32.16086     25.792  56.940
 32.17165     46.270  56.871
 32.18245    242.828  57.919
 32.19323    350.310  58.368
 32.20403    269.267  57.598
 32.21481    369.912   5.797
 32.22561    642.028  59.385
 32.23640    928.991   6.084
 32.24719   1037.691  61.168
 32.25798   1142.772  61.451
 32.26877   1663.498   6.414
 32.27956   1766.942  64.349
 32.29035   1447.984  62.077
 32.30114   1639.206  62.755
 32.31193   2502.565  67.180
 32.32272   3249.660  70.698
 32.33351   2942.618  68.589
 32.34430   2883.217  67.738
 32.35509   2987.579  67.736
