0.3130000000	1
0.3430000000	1
0.3730000000	1
0.4030000000	1
0.4330000000	1
0.4630000000	1
0.4930000000	1
0.5230000000	1
0.5530000000	1
0.5830000000	1
0.6130000000	1
0.6430000000	1
0.6730000000	1
0.7030000000	2
0.7330000000	1
0.7630000000	1
0.7930000000	1
0.8230000000	1
0.8530000000	1
0.8830000000	1
0.9130000000	1
0.9430000000	1
0.9730000000	1
1.0030000000	1
1.0330000000	1
1.0630000000	1
1.0930000000	1
1.1230000000	2
1.1530000000	2
1.1830000000	1
1.2130000000	1
1.2430000000	2
1.2730000000	1
1.3030000000	1
1.3330000000	1
1.3630000000	2
1.3930000000	1
1.4230000000	1
1.4530000000	2
1.4830000000	1
1.5130000000	1
1.5430000000	1
1.5730000000	1
1.6030000000	2
1.6330000000	2
1.6630000000	1
1.6930000000	1
1.7230000000	1
1.7530000000	1
1.7830000000	1
1.8130000000	1
1.8430000000	2
1.8730000000	1
1.9030000000	2
1.9330000000	1
1.9630000000	1
1.9930000000	1
2.0230000000	2
2.0530000000	1
2.0830000000	2
2.1130000000	2
2.1430000000	1
2.1730000000	2
2.2030000000	2
2.2330000000	1
2.2630000000	2
2.2930000000	2
2.3230000000	1
2.3530000000	1
2.3830000000	1
2.4130000000	2
2.4430000000	2
2.4730000000	1
2.5030000000	1
2.5330000000	2
2.5630000000	2
2.5930000000	1
2.6230000000	1
2.6530000000	1
2.6830000000	1
2.7130000000	2
2.7430000000	1
2.7730000000	1
2.8030000000	2
2.8330000000	3
2.8630000000	1
2.8930000000	1
2.9230000000	1
2.9530000000	1
2.9830000000	2
3.0130000000	1
3.0430000000	2
3.0730000000	2
3.1030000000	1
3.1330000000	3
3.1630000000	2
3.1930000000	1
3.2230000000	4
3.2530000000	2
3.2830000000	3
3.3130000000	1
3.3430000000	2
3.3730000000	2
3.4030000000	1
3.4330000000	3
3.4630000000	1
3.4930000000	3
3.5230000000	4
3.5530000000	2
3.5830000000	2
3.6130000000	1
3.6430000000	2
3.6730000000	1
3.7030000000	2
3.7330000000	1
3.7630000000	3
3.7930000000	2
3.8230000000	4
3.8530000000	3
3.8830000000	1
3.9130000000	1
3.9430000000	1
3.9730000000	3
4.0030000000	2
4.0330000000	2
4.0630000000	5
4.0930000000	3
4.1230000000	2
4.1530000000	2
4.1830000000	1
4.2130000000	2
4.2430000000	4
4.2730000000	6
4.3030000000	3
4.3330000000	5
4.3630000000	4
4.3930000000	4
4.4230000000	7
4.4530000000	11
4.4830000000	17
4.5130000000	34
4.5430000000	34
4.5730000000	47
4.6030000000	67
4.6330000000	87
4.6630000000	102
4.6930000000	136
4.7230000000	117
4.7530000000	136
4.7830000000	126
4.8130000000	129
4.8430000000	169
4.8730000000	149
4.9030000000	138
4.9330000000	139
4.9630000000	156
4.9930000000	149
5.0230000000	155
5.0530000000	148
5.0830000000	164
5.1130000000	119
5.1430000000	140
5.1730000000	128
5.2030000000	150
5.2330000000	156
5.2630000000	152
5.2930000000	136
5.3230000000	150
5.3530000000	128
5.3830000000	154
5.4130000000	165
5.4430000000	158
5.4730000000	151
5.5030000000	137
5.5330000000	171
5.5630000000	151
5.5930000000	139
5.6230000000	152
5.6530000000	147
5.6830000000	151
5.7130000000	157
5.7430000000	158
5.7730000000	151
5.8030000000	133
5.8330000000	153
5.8630000000	152
5.8930000000	128
5.9230000000	146
5.9530000000	132
5.9830000000	167
6.0130000000	139
6.0430000000	141
6.0730000000	133
6.1030000000	137
6.1330000000	144
6.1630000000	153
6.1930000000	170
6.2230000000	161
6.2530000000	132
6.2830000000	140
6.3130000000	137
6.3430000000	165
6.3730000000	130
6.4030000000	166
6.4330000000	154
6.4630000000	151
6.4930000000	157
6.5230000000	145
6.5530000000	160
6.5830000000	155
6.6130000000	161
6.6430000000	139
6.6730000000	144
6.7030000000	136
6.7330000000	142
6.7630000000	138
6.7930000000	148
6.8230000000	140
6.8530000000	127
6.8830000000	137
6.9130000000	127
6.9430000000	122
6.9730000000	148
7.0030000000	155
7.0330000000	140
7.0630000000	148
7.0930000000	140
7.1230000000	135
7.1530000000	149
7.1830000000	143
7.2130000000	140
7.2430000000	139
7.2730000000	146
7.3030000000	156
7.3330000000	145
7.3630000000	140
7.3930000000	153
7.4230000000	154
7.4530000000	149
7.4830000000	149
7.5130000000	139
7.5430000000	132
7.5730000000	148
7.6030000000	150
7.6330000000	151
7.6630000000	153
7.6930000000	135
7.7230000000	134
7.7530000000	142
7.7830000000	143
7.8130000000	149
7.8430000000	152
7.8730000000	147
7.9030000000	128
7.9330000000	129
7.9630000000	142
7.9930000000	135
8.0230000000	141
8.0530000000	140
8.0830000000	152
8.1130000000	158
8.1430000000	150
8.1730000000	138
8.2030000000	132
8.2330000000	153
8.2630000000	134
8.2930000000	126
8.3230000000	141
8.3530000000	129
8.3830000000	146
8.4130000000	143
8.4430000000	166
8.4730000000	134
8.5030000000	145
8.5330000000	137
8.5630000000	165
8.5930000000	152
8.6230000000	139
8.6530000000	138
8.6830000000	150
8.7130000000	139
8.7430000000	156
8.7730000000	146
8.8030000000	141
8.8330000000	142
8.8630000000	144
8.8930000000	141
8.9230000000	142
8.9530000000	136
8.9830000000	149
9.0130000000	142
9.0430000000	138
9.0730000000	147
9.1030000000	155
9.1330000000	159
9.1630000000	156
9.1930000000	156
9.2230000000	155
9.2530000000	140
9.2830000000	138
9.3130000000	153
9.3430000000	143
9.3730000000	132
9.4030000000	145
9.4330000000	157
9.4630000000	163
9.4930000000	169
9.5230000000	143
9.5530000000	156
9.5830000000	130
9.6130000000	143
9.6430000000	169
9.6730000000	158
9.7030000000	160
9.7330000000	148
9.7630000000	150
9.7930000000	144
9.8230000000	146
9.8530000000	174
9.8830000000	163
9.9130000000	138
9.9430000000	134
9.9730000000	129
10.0030000000	136
10.0330000000	148
10.0630000000	146
10.0930000000	139
10.1230000000	141
10.1530000000	134
10.1830000000	153
10.2130000000	138
10.2430000000	158
10.2730000000	152
10.3030000000	143
10.3330000000	159
10.3630000000	154
10.3930000000	165
10.4230000000	150
10.4530000000	123
10.4830000000	141
10.5130000000	132
10.5430000000	153
10.5730000000	159
10.6030000000	148
10.6330000000	152
10.6630000000	152
10.6930000000	135
10.7230000000	141
10.7530000000	139
10.7830000000	151
10.8130000000	169
10.8430000000	151
10.8730000000	130
10.9030000000	137
10.9330000000	133
10.9630000000	150
10.9930000000	145
11.0230000000	142
11.0530000000	161
11.0830000000	137
11.1130000000	149
11.1430000000	163
11.1730000000	148
11.2030000000	121
11.2330000000	146
11.2630000000	155
11.2930000000	128
11.3230000000	137
11.3530000000	139
11.3830000000	133
11.4130000000	149
11.4430000000	154
11.4730000000	133
11.5030000000	142
11.5330000000	127
11.5630000000	137
11.5930000000	151
11.6230000000	137
11.6530000000	148
11.6830000000	148
11.7130000000	145
11.7430000000	148
11.7730000000	135
11.8030000000	133
11.8330000000	156
11.8630000000	153
11.8930000000	125
11.9230000000	170
11.9530000000	146
11.9830000000	137
12.0130000000	158
12.0430000000	148
12.0730000000	141
12.1030000000	152
12.1330000000	144
12.1630000000	157
12.1930000000	142
12.2230000000	141
12.2530000000	161
12.2830000000	162
12.3130000000	173
12.3430000000	145
12.3730000000	152
12.4030000000	158
12.4330000000	149
12.4630000000	151
12.4930000000	154
12.5230000000	151
12.5530000000	153
12.5830000000	153
12.6130000000	147
12.6430000000	143
12.6730000000	137
12.7030000000	155
12.7330000000	141
12.7630000000	149
12.7930000000	154
12.8230000000	146
12.8530000000	156
12.8830000000	134
12.9130000000	135
12.9430000000	159
12.9730000000	170
13.0030000000	159
13.0330000000	146
13.0630000000	142
13.0930000000	137
13.1230000000	149
13.1530000000	147
13.1830000000	146
13.2130000000	163
13.2430000000	137
13.2730000000	139
13.3030000000	145
13.3330000000	158
13.3630000000	144
13.3930000000	127
13.4230000000	137
13.4530000000	150
13.4830000000	149
13.5130000000	165
13.5430000000	167
13.5730000000	118
13.6030000000	142
13.6330000000	153
13.6630000000	157
13.6930000000	144
13.7230000000	129
13.7530000000	142
13.7830000000	158
13.8130000000	148
13.8430000000	158
13.8730000000	154
13.9030000000	144
13.9330000000	131
13.9630000000	159
13.9930000000	139
14.0230000000	147
14.0530000000	138
14.0830000000	137
14.1130000000	130
14.1430000000	136
14.1730000000	134
14.2030000000	163
14.2330000000	156
14.2630000000	138
14.2930000000	142
14.3230000000	126
14.3530000000	135
14.3830000000	131
14.4130000000	138
14.4430000000	142
14.4730000000	148
14.5030000000	139
14.5330000000	124
14.5630000000	120
14.5930000000	137
14.6230000000	132
14.6530000000	145
14.6830000000	153
14.7130000000	149
14.7430000000	157
14.7730000000	126
14.8030000000	134
14.8330000000	141
14.8630000000	149
14.8930000000	147
14.9230000000	132
14.9530000000	173
14.9830000000	158
15.0130000000	140
15.0430000000	140
15.0730000000	165
15.1030000000	147
15.1330000000	165
15.1630000000	146
15.1930000000	155
15.2230000000	178
15.2530000000	147
15.2830000000	147
15.3130000000	168
15.3430000000	125
15.3730000000	128
15.4030000000	154
15.4330000000	164
15.4630000000	142
15.4930000000	149
15.5230000000	152
15.5530000000	153
15.5830000000	148
15.6130000000	144
15.6430000000	154
15.6730000000	150
15.7030000000	148
15.7330000000	142
15.7630000000	145
15.7930000000	130
15.8230000000	140
15.8530000000	148
15.8830000000	160
15.9130000000	151
15.9430000000	135
15.9730000000	141
16.0030000000	134
16.0330000000	154
16.0630000000	149
16.0930000000	154
16.1230000000	137
16.1530000000	133
16.1830000000	144
16.2130000000	143
16.2430000000	152
16.2730000000	140
16.3030000000	157
16.3330000000	138
16.3630000000	137
16.3930000000	144
16.4230000000	140
16.4530000000	164
16.4830000000	159
16.5130000000	146
16.5430000000	140
16.5730000000	167
16.6030000000	130
16.6330000000	125
16.6630000000	149
16.6930000000	147
16.7230000000	125
16.7530000000	129
16.7830000000	154
16.8130000000	145
16.8430000000	156
16.8730000000	137
16.9030000000	150
16.9330000000	130
16.9630000000	146
16.9930000000	158
17.0230000000	140
17.0530000000	150
17.0830000000	159
17.1130000000	148
17.1430000000	130
17.1730000000	143
17.2030000000	151
17.2330000000	143
17.2630000000	140
17.2930000000	163
17.3230000000	153
17.3530000000	148
17.3830000000	169
17.4130000000	139
17.4430000000	132
17.4730000000	135
17.5030000000	172
17.5330000000	168
17.5630000000	167
17.5930000000	159
17.6230000000	156
17.6530000000	160
17.6830000000	168
17.7130000000	137
17.7430000000	121
17.7730000000	141
17.8030000000	132
17.8330000000	129
17.8630000000	140
17.8930000000	162
17.9230000000	153
17.9530000000	126
17.9830000000	135
18.0130000000	151
18.0430000000	148
18.0730000000	133
18.1030000000	159
18.1330000000	147
18.1630000000	148
18.1930000000	141
18.2230000000	132
18.2530000000	123
18.2830000000	137
18.3130000000	137
18.3430000000	135
18.3730000000	150
18.4030000000	148
18.4330000000	147
18.4630000000	159
18.4930000000	133
18.5230000000	124
18.5530000000	161
18.5830000000	150
18.6130000000	134
18.6430000000	146
18.6730000000	143
18.7030000000	133
18.7330000000	131
18.7630000000	136
18.7930000000	130
18.8230000000	138
18.8530000000	139
18.8830000000	139
18.9130000000	136
18.9430000000	152
18.9730000000	153
19.0030000000	149
19.0330000000	153
19.0630000000	146
19.0930000000	137
19.1230000000	141
19.1530000000	163
19.1830000000	159
19.2130000000	173
19.2430000000	132
19.2730000000	149
19.3030000000	138
19.3330000000	168
19.3630000000	158
19.3930000000	168
19.4230000000	179
19.4530000000	201
19.4830000000	231
19.5130000000	270
19.5430000000	311
19.5730000000	381
19.6030000000	380
19.6330000000	396
19.6630000000	335
19.6930000000	269
19.7230000000	229
19.7530000000	191
19.7830000000	184
19.8130000000	149
19.8430000000	171
19.8730000000	157
19.9030000000	145
19.9330000000	152
19.9630000000	149
19.9930000000	134
20.0230000000	139
20.0530000000	128
20.0830000000	162
20.1130000000	139
20.1430000000	161
20.1730000000	161
20.2030000000	146
20.2330000000	147
20.2630000000	157
20.2930000000	140
20.3230000000	147
20.3530000000	153
20.3830000000	142
20.4130000000	163
20.4430000000	174
20.4730000000	126
20.5030000000	160
20.5330000000	140
20.5630000000	151
20.5930000000	163
20.6230000000	143
20.6530000000	155
20.6830000000	148
20.7130000000	146
20.7430000000	152
20.7730000000	147
20.8030000000	161
20.8330000000	153
20.8630000000	150
20.8930000000	157
20.9230000000	158
20.9530000000	165
20.9830000000	159
21.0130000000	156
21.0430000000	147
21.0730000000	164
21.1030000000	175
21.1330000000	153
21.1630000000	150
21.1930000000	153
21.2230000000	151
21.2530000000	135
21.2830000000	161
21.3130000000	156
21.3430000000	177
21.3730000000	185
21.4030000000	153
21.4330000000	158
21.4630000000	154
21.4930000000	155
21.5230000000	162
21.5530000000	162
21.5830000000	168
21.6130000000	160
21.6430000000	139
21.6730000000	170
21.7030000000	181
21.7330000000	155
21.7630000000	149
21.7930000000	159
21.8230000000	163
21.8530000000	162
21.8830000000	158
21.9130000000	151
21.9430000000	169
21.9730000000	160
22.0030000000	155
22.0330000000	185
22.0630000000	194
22.0930000000	174
22.1230000000	168
22.1530000000	163
22.1830000000	178
22.2130000000	151
22.2430000000	133
22.2730000000	153
22.3030000000	161
22.3330000000	162
22.3630000000	165
22.3930000000	144
22.4230000000	169
22.4530000000	173
22.4830000000	179
22.5130000000	185
22.5430000000	159
22.5730000000	175
22.6030000000	192
22.6330000000	192
22.6630000000	204
22.6930000000	233
22.7230000000	250
22.7530000000	215
22.7830000000	217
22.8130000000	247
22.8430000000	205
22.8730000000	203
22.9030000000	168
22.9330000000	189
22.9630000000	161
22.9930000000	155
23.0230000000	173
23.0530000000	167
23.0830000000	154
23.1130000000	168
23.1430000000	167
23.1730000000	161
23.2030000000	168
23.2330000000	184
23.2630000000	161
23.2930000000	167
23.3230000000	174
23.3530000000	176
23.3830000000	178
23.4130000000	187
23.4430000000	196
23.4730000000	170
23.5030000000	150
23.5330000000	185
23.5630000000	147
23.5930000000	167
23.6230000000	178
23.6530000000	174
23.6830000000	172
23.7130000000	179
23.7430000000	166
23.7730000000	136
23.8030000000	197
23.8330000000	175
23.8630000000	175
23.8930000000	193
23.9230000000	164
23.9530000000	171
23.9830000000	167
24.0130000000	150
24.0430000000	160
24.0730000000	168
24.1030000000	171
24.1330000000	155
24.1630000000	145
24.1930000000	153
24.2230000000	177
24.2530000000	176
24.2830000000	173
24.3130000000	162
24.3430000000	161
24.3730000000	162
24.4030000000	145
24.4330000000	167
24.4630000000	146
24.4930000000	157
24.5230000000	159
24.5530000000	175
24.5830000000	150
24.6130000000	184
24.6430000000	172
24.6730000000	180
24.7030000000	164
24.7330000000	161
24.7630000000	161
24.7930000000	128
24.8230000000	163
24.8530000000	177
24.8830000000	147
24.9130000000	169
24.9430000000	202
24.9730000000	158
25.0030000000	165
25.0330000000	167
25.0630000000	153
25.0930000000	163
25.1230000000	178
25.1530000000	162
25.1830000000	193
25.2130000000	169
25.2430000000	140
25.2730000000	157
25.3030000000	161
25.3330000000	161
25.3630000000	169
25.3930000000	162
25.4230000000	170
25.4530000000	139
25.4830000000	146
25.5130000000	181
25.5430000000	173
25.5730000000	167
25.6030000000	158
25.6330000000	163
25.6630000000	177
25.6930000000	164
25.7230000000	151
25.7530000000	171
25.7830000000	168
25.8130000000	174
25.8430000000	170
25.8730000000	153
25.9030000000	185
25.9330000000	179
25.9630000000	182
25.9930000000	157
26.0230000000	145
26.0530000000	168
26.0830000000	173
26.1130000000	177
26.1430000000	177
26.1730000000	191
26.2030000000	189
26.2330000000	216
26.2630000000	263
26.2930000000	313
26.3230000000	395
26.3530000000	474
26.3830000000	611
26.4130000000	808
26.4430000000	962
26.4730000000	995
26.5030000000	871
26.5330000000	669
26.5630000000	496
26.5930000000	351
26.6230000000	253
26.6530000000	229
26.6830000000	195
26.7130000000	175
26.7430000000	169
26.7730000000	172
26.8030000000	193
26.8330000000	172
26.8630000000	160
26.8930000000	152
26.9230000000	169
26.9530000000	165
26.9830000000	166
27.0130000000	174
27.0430000000	152
27.0730000000	140
27.1030000000	125
27.1330000000	136
27.1630000000	147
27.1930000000	135
27.2230000000	146
27.2530000000	155
27.2830000000	164
27.3130000000	145
27.3430000000	151
27.3730000000	145
27.4030000000	129
27.4330000000	156
27.4630000000	172
27.4930000000	149
27.5230000000	147
27.5530000000	148
27.5830000000	135
27.6130000000	155
27.6430000000	148
27.6730000000	143
27.7030000000	121
27.7330000000	142
27.7630000000	167
27.7930000000	169
27.8230000000	143
27.8530000000	150
27.8830000000	166
27.9130000000	158
27.9430000000	154
27.9730000000	128
28.0030000000	152
28.0330000000	138
28.0630000000	125
28.0930000000	128
28.1230000000	159
28.1530000000	154
28.1830000000	142
28.2130000000	165
28.2430000000	156
28.2730000000	153
28.3030000000	148
28.3330000000	134
28.3630000000	139
28.3930000000	157
28.4230000000	153
28.4530000000	131
28.4830000000	130
28.5130000000	149
28.5430000000	153
28.5730000000	145
28.6030000000	151
28.6330000000	167
28.6630000000	144
28.6930000000	132
28.7230000000	137
28.7530000000	138
28.7830000000	140
28.8130000000	138
28.8430000000	138
28.8730000000	132
28.9030000000	143
28.9330000000	135
28.9630000000	148
28.9930000000	135
29.0230000000	164
29.0530000000	152
29.0830000000	113
29.1130000000	152
29.1430000000	129
29.1730000000	132
29.2030000000	140
29.2330000000	136
29.2630000000	143
29.2930000000	155
29.3230000000	129
29.3530000000	141
29.3830000000	138
29.4130000000	110
29.4430000000	132
29.4730000000	136
29.5030000000	126
29.5330000000	113
29.5630000000	130
29.5930000000	132
29.6230000000	130
29.6530000000	138
29.6830000000	133
29.7130000000	139
29.7430000000	146
29.7730000000	136
29.8030000000	138
29.8330000000	131
29.8630000000	138
29.8930000000	130
29.9230000000	151
29.9530000000	124
29.9830000000	127
30.0130000000	133
30.0430000000	151
30.0730000000	155
30.1030000000	162
30.1330000000	164
30.1630000000	168
30.1930000000	177
30.2230000000	198
30.2530000000	223
30.2830000000	294
30.3130000000	388
30.3430000000	581
30.3730000000	803
30.4030000000	1202
30.4330000000	1801
30.4630000000	2308
30.4930000000	2688
30.5230000000	2565
30.5530000000	2082
30.5830000000	1371
30.6130000000	918
30.6430000000	581
30.6730000000	424
30.7030000000	291
30.7330000000	215
30.7630000000	168
30.7930000000	188
30.8230000000	157
30.8530000000	126
30.8830000000	160
30.9130000000	158
30.9430000000	148
30.9730000000	171
31.0030000000	133
31.0330000000	118
31.0630000000	165
31.0930000000	121
31.1230000000	133
31.1530000000	141
31.1830000000	150
31.2130000000	148
31.2430000000	124
31.2730000000	137
31.3030000000	137
31.3330000000	138
31.3630000000	125
31.3930000000	125
31.4230000000	132
31.4530000000	128
31.4830000000	134
31.5130000000	137
31.5430000000	139
31.5730000000	146
31.6030000000	132
31.6330000000	164
31.6630000000	175
31.6930000000	174
31.7230000000	240
31.7530000000	332
31.7830000000	459
31.8130000000	683
31.8430000000	892
31.8730000000	1260
31.9030000000	1603
31.9330000000	1617
31.9630000000	1481
31.9930000000	1125
32.0230000000	843
32.0530000000	697
32.0830000000	644
32.1130000000	694
32.1430000000	877
32.1730000000	1030
32.2030000000	1174
32.2330000000	1088
32.2630000000	915
32.2930000000	706
32.3230000000	524
32.3530000000	351
32.3830000000	253
32.4130000000	204
32.4430000000	172
32.4730000000	146
32.5030000000	117
32.5330000000	114
32.5630000000	101
32.5930000000	124
32.6230000000	136
32.6530000000	126
32.6830000000	124
32.7130000000	116
32.7430000000	110
32.7730000000	121
32.8030000000	118
32.8330000000	113
32.8630000000	115
32.8930000000	94
32.9230000000	85
32.9530000000	111
32.9830000000	122
33.0130000000	119
33.0430000000	118
33.0730000000	115
33.1030000000	112
33.1330000000	110
33.1630000000	97
33.1930000000	133
33.2230000000	118
33.2530000000	145
33.2830000000	137
33.3130000000	107
33.3430000000	137
33.3730000000	134
33.4030000000	129
33.4330000000	125
33.4630000000	123
33.4930000000	127
33.5230000000	112
33.5530000000	113
33.5830000000	116
33.6130000000	108
33.6430000000	108
33.6730000000	96
33.7030000000	110
33.7330000000	111
33.7630000000	110
33.7930000000	107
33.8230000000	96
33.8530000000	77
33.8830000000	109
33.9130000000	106
33.9430000000	95
33.9730000000	88
34.0030000000	106
34.0330000000	107
34.0630000000	107
34.0930000000	107
34.1230000000	97
34.1530000000	75
34.1830000000	106
34.2130000000	103
34.2430000000	89
34.2730000000	83
34.3030000000	98
34.3330000000	111
34.3630000000	103
34.3930000000	105
34.4230000000	98
34.4530000000	98
34.4830000000	108
34.5130000000	93
34.5430000000	94
34.5730000000	96
34.6030000000	102
34.6330000000	97
34.6630000000	105
34.6930000000	89
34.7230000000	94
34.7530000000	100
34.7830000000	99
34.8130000000	106
34.8430000000	101
34.8730000000	107
34.9030000000	87
34.9330000000	109
34.9630000000	101
34.9930000000	102
35.0230000000	87
35.0530000000	91
35.0830000000	107
35.1130000000	97
35.1430000000	103
35.1730000000	116
35.2030000000	102
35.2330000000	110
35.2630000000	132
35.2930000000	130
35.3230000000	163
35.3530000000	198
35.3830000000	242
35.4130000000	268
35.4430000000	260
35.4730000000	236
35.5030000000	208
35.5330000000	172
35.5630000000	154
35.5930000000	119
35.6230000000	122
35.6530000000	110
35.6830000000	106
35.7130000000	98
35.7430000000	91
35.7730000000	101
35.8030000000	95
35.8330000000	81
35.8630000000	86
35.8930000000	97
35.9230000000	110
35.9530000000	93
35.9830000000	116
36.0130000000	87
36.0430000000	99
36.0730000000	87
36.1030000000	85
36.1330000000	76
36.1630000000	81
36.1930000000	98
36.2230000000	94
36.2530000000	91
36.2830000000	94
36.3130000000	99
36.3430000000	116
36.3730000000	98
36.4030000000	107
36.4330000000	87
36.4630000000	96
36.4930000000	126
36.5230000000	130
36.5530000000	172
36.5830000000	226
36.6130000000	285
36.6430000000	377
36.6730000000	396
36.7030000000	424
36.7330000000	397
36.7630000000	340
36.7930000000	235
36.8230000000	196
36.8530000000	156
36.8830000000	126
36.9130000000	119
36.9430000000	100
36.9730000000	87
37.0030000000	89
37.0330000000	99
37.0630000000	93
37.0930000000	82
37.1230000000	89
37.1530000000	98
37.1830000000	90
37.2130000000	89
37.2430000000	83
37.2730000000	76
37.3030000000	81
37.3330000000	96
37.3630000000	87
37.3930000000	97
37.4230000000	69
37.4530000000	79
37.4830000000	81
37.5130000000	89
37.5430000000	87
37.5730000000	90
37.6030000000	79
37.6330000000	90
37.6630000000	89
37.6930000000	76
37.7230000000	71
37.7530000000	84
37.7830000000	101
37.8130000000	89
37.8430000000	87
37.8730000000	88
37.9030000000	90
37.9330000000	77
37.9630000000	85
37.9930000000	96
38.0230000000	91
38.0530000000	118
38.0830000000	97
38.1130000000	81
38.1430000000	73
38.1730000000	65
38.2030000000	74
38.2330000000	82
38.2630000000	71
38.2930000000	89
38.3230000000	76
38.3530000000	82
38.3830000000	90
38.4130000000	79
38.4430000000	92
38.4730000000	79
38.5030000000	83
38.5330000000	94
38.5630000000	82
38.5930000000	82
38.6230000000	99
38.6530000000	89
38.6830000000	75
38.7130000000	98
38.7430000000	102
38.7730000000	78
38.8030000000	82
38.8330000000	102
38.8630000000	94
38.8930000000	80
38.9230000000	91
38.9530000000	96
38.9830000000	90
39.0130000000	87
39.0430000000	87
39.0730000000	94
39.1030000000	91
39.1330000000	101
39.1630000000	87
39.1930000000	99
39.2230000000	98
39.2530000000	83
39.2830000000	108
39.3130000000	91
39.3430000000	86
39.3730000000	94
39.4030000000	90
39.4330000000	91
39.4630000000	93
39.4930000000	111
39.5230000000	99
39.5530000000	121
39.5830000000	127
39.6130000000	181
39.6430000000	227
39.6730000000	297
39.7030000000	470
39.7330000000	610
39.7630000000	900
39.7930000000	1092
39.8230000000	1227
39.8530000000	1128
39.8830000000	944
39.9130000000	760
39.9430000000	514
39.9730000000	349
40.0030000000	240
40.0330000000	164
40.0630000000	131
40.0930000000	118
40.1230000000	85
40.1530000000	100
40.1830000000	106
40.2130000000	97
40.2430000000	89
40.2730000000	97
40.3030000000	94
40.3330000000	85
40.3630000000	84
40.3930000000	91
40.4230000000	94
40.4530000000	92
40.4830000000	89
40.5130000000	85
40.5430000000	85
40.5730000000	74
40.6030000000	95
40.6330000000	78
40.6630000000	82
40.6930000000	67
40.7230000000	82
40.7530000000	71
40.7830000000	92
40.8130000000	100
40.8430000000	81
40.8730000000	71
40.9030000000	70
40.9330000000	90
40.9630000000	82
40.9930000000	99
41.0230000000	90
41.0530000000	89
41.0830000000	91
41.1130000000	89
41.1430000000	82
41.1730000000	89
41.2030000000	84
41.2330000000	70
41.2630000000	96
41.2930000000	94
41.3230000000	75
41.3530000000	72
41.3830000000	70
41.4130000000	68
41.4430000000	77
41.4730000000	93
41.5030000000	71
41.5330000000	81
41.5630000000	82
41.5930000000	89
41.6230000000	86
41.6530000000	85
41.6830000000	74
41.7130000000	72
41.7430000000	76
41.7730000000	87
41.8030000000	75
41.8330000000	64
41.8630000000	80
41.8930000000	82
41.9230000000	69
41.9530000000	68
41.9830000000	98
42.0130000000	82
42.0430000000	71
42.0730000000	78
42.1030000000	90
42.1330000000	81
42.1630000000	74
42.1930000000	79
42.2230000000	78
42.2530000000	77
42.2830000000	79
42.3130000000	76
42.3430000000	77
42.3730000000	74
42.4030000000	76
42.4330000000	82
42.4630000000	73
42.4930000000	71
42.5230000000	82
42.5530000000	75
42.5830000000	74
42.6130000000	85
42.6430000000	82
42.6730000000	87
42.7030000000	90
42.7330000000	80
42.7630000000	93
42.7930000000	106
42.8230000000	92
42.8530000000	86
42.8830000000	107
42.9130000000	90
42.9430000000	93
42.9730000000	86
43.0030000000	91
43.0330000000	111
43.0630000000	121
43.0930000000	156
43.1230000000	184
43.1530000000	261
43.1830000000	338
43.2130000000	514
43.2430000000	726
43.2730000000	1054
43.3030000000	1308
43.3330000000	1360
43.3630000000	1312
43.3930000000	1074
43.4230000000	790
43.4530000000	605
43.4830000000	409
43.5130000000	265
43.5430000000	198
43.5730000000	156
43.6030000000	118
43.6330000000	98
43.6630000000	83
43.6930000000	112
43.7230000000	108
43.7530000000	101
43.7830000000	117
43.8130000000	101
43.8430000000	101
43.8730000000	106
43.9030000000	121
43.9330000000	97
43.9630000000	100
43.9930000000	90
44.0230000000	80
44.0530000000	65
44.0830000000	85
44.1130000000	55
44.1430000000	74
44.1730000000	78
44.2030000000	81
44.2330000000	70
44.2630000000	86
44.2930000000	78
44.3230000000	76
44.3530000000	73
44.3830000000	71
44.4130000000	75
44.4430000000	78
44.4730000000	81
44.5030000000	65
44.5330000000	73
44.5630000000	70
44.5930000000	75
44.6230000000	71
44.6530000000	81
44.6830000000	68
44.7130000000	70
44.7430000000	72
44.7730000000	77
44.8030000000	88
44.8330000000	90
44.8630000000	82
44.8930000000	102
44.9230000000	121
44.9530000000	137
44.9830000000	171
45.0130000000	194
45.0430000000	316
45.0730000000	403
45.1030000000	582
45.1330000000	804
45.1630000000	881
45.1930000000	840
45.2230000000	764
45.2530000000	618
45.2830000000	484
45.3130000000	300
45.3430000000	211
45.3730000000	145
45.4030000000	109
45.4330000000	110
45.4630000000	84
45.4930000000	83
45.5230000000	76
45.5530000000	74
45.5830000000	71
45.6130000000	79
45.6430000000	80
45.6730000000	78
45.7030000000	83
45.7330000000	78
45.7630000000	68
45.7930000000	65
45.8230000000	79
45.8530000000	87
45.8830000000	66
45.9130000000	69
45.9430000000	89
45.9730000000	85
46.0030000000	105
46.0330000000	105
46.0630000000	138
46.0930000000	213
46.1230000000	196
46.1530000000	200
46.1830000000	182
46.2130000000	162
46.2430000000	149
46.2730000000	131
46.3030000000	109
46.3330000000	85
46.3630000000	93
46.3930000000	101
46.4230000000	74
46.4530000000	103
46.4830000000	131
46.5130000000	111
46.5430000000	107
46.5730000000	120
46.6030000000	116
46.6330000000	105
46.6630000000	89
46.6930000000	84
46.7230000000	82
46.7530000000	67
46.7830000000	71
46.8130000000	81
46.8430000000	70
46.8730000000	57
46.9030000000	82
46.9330000000	92
46.9630000000	107
46.9930000000	129
47.0230000000	169
47.0530000000	198
47.0830000000	230
47.1130000000	222
47.1430000000	249
47.1730000000	210
47.2030000000	166
47.2330000000	128
47.2630000000	114
47.2930000000	79
47.3230000000	84
47.3530000000	75
47.3830000000	83
47.4130000000	64
47.4430000000	79
47.4730000000	81
47.5030000000	69
47.5330000000	57
47.5630000000	96
47.5930000000	102
47.6230000000	81
47.6530000000	94
47.6830000000	83
47.7130000000	73
47.7430000000	82
47.7730000000	63
47.8030000000	63
47.8330000000	71
47.8630000000	49
47.8930000000	57
47.9230000000	65
47.9530000000	56
47.9830000000	59
48.0130000000	58
48.0430000000	59
48.0730000000	56
48.1030000000	55
48.1330000000	62
48.1630000000	54
48.1930000000	54
48.2230000000	59
48.2530000000	69
48.2830000000	56
48.3130000000	46
48.3430000000	64
48.3730000000	60
48.4030000000	60
48.4330000000	70
48.4630000000	49
48.4930000000	57
48.5230000000	69
48.5530000000	57
48.5830000000	59
48.6130000000	50
48.6430000000	43
48.6730000000	43
48.7030000000	57
48.7330000000	56
48.7630000000	62
48.7930000000	56
48.8230000000	52
48.8530000000	54
48.8830000000	53
48.9130000000	52
48.9430000000	54
48.9730000000	55
49.0030000000	53
49.0330000000	53
49.0630000000	56
49.0930000000	58
49.1230000000	53
49.1530000000	44
49.1830000000	38
49.2130000000	50
49.2430000000	56
49.2730000000	43
49.3030000000	56
49.3330000000	65
49.3630000000	49
49.3930000000	41
49.4230000000	37
49.4530000000	52
49.4830000000	46
49.5130000000	49
49.5430000000	74
49.5730000000	52
49.6030000000	59
49.6330000000	62
49.6630000000	43
49.6930000000	43
49.7230000000	52
49.7530000000	52
49.7830000000	64
49.8130000000	61
49.8430000000	48
49.8730000000	45
49.9030000000	50
49.9330000000	56
49.9630000000	54
49.9930000000	58
50.0230000000	51
50.0530000000	52
50.0830000000	48
50.1130000000	55
50.1430000000	65
50.1730000000	55
50.2030000000	51
50.2330000000	72
50.2630000000	59
50.2930000000	54
50.3230000000	51
50.3530000000	49
50.3830000000	59
50.4130000000	69
50.4430000000	55
50.4730000000	40
50.5030000000	55
50.5330000000	64
50.5630000000	73
50.5930000000	83
50.6230000000	76
50.6530000000	100
50.6830000000	95
50.7130000000	86
50.7430000000	85
50.7730000000	82
50.8030000000	83
50.8330000000	63
50.8630000000	56
50.8930000000	49
50.9230000000	49
50.9530000000	47
50.9830000000	55
51.0130000000	54
51.0430000000	46
51.0730000000	56
51.1030000000	64
51.1330000000	63
51.1630000000	50
51.1930000000	49
51.2230000000	53
51.2530000000	48
51.2830000000	41
51.3130000000	46
51.3430000000	43
51.3730000000	48
51.4030000000	61
51.4330000000	62
51.4630000000	53
51.4930000000	52
51.5230000000	55
51.5530000000	47
51.5830000000	49
51.6130000000	48
51.6430000000	49
51.6730000000	56
51.7030000000	42
51.7330000000	53
51.7630000000	46
51.7930000000	58
51.8230000000	48
51.8530000000	48
51.8830000000	42
51.9130000000	58
51.9430000000	56
51.9730000000	49
52.0030000000	53
52.0330000000	54
52.0630000000	63
52.0930000000	50
52.1230000000	63
52.1530000000	71
52.1830000000	81
52.2130000000	82
52.2430000000	79
52.2730000000	102
52.3030000000	55
52.3330000000	74
52.3630000000	76
52.3930000000	78
52.4230000000	52
52.4530000000	51
52.4830000000	54
52.5130000000	51
52.5430000000	48
52.5730000000	55
52.6030000000	50
52.6330000000	47
52.6630000000	47
52.6930000000	62
52.7230000000	54
52.7530000000	43
52.7830000000	46
52.8130000000	64
52.8430000000	47
52.8730000000	48
52.9030000000	48
52.9330000000	59
52.9630000000	55
52.9930000000	58
53.0230000000	53
53.0530000000	48
53.0830000000	57
53.1130000000	47
53.1430000000	59
53.1730000000	64
53.2030000000	51
53.2330000000	40
53.2630000000	44
53.2930000000	52
53.3230000000	45
53.3530000000	38
53.3830000000	54
53.4130000000	56
53.4430000000	53
53.4730000000	56
53.5030000000	57
53.5330000000	53
53.5630000000	48
53.5930000000	48
53.6230000000	56
53.6530000000	53
53.6830000000	52
53.7130000000	49
53.7430000000	53
53.7730000000	59
53.8030000000	52
53.8330000000	53
53.8630000000	52
53.8930000000	67
53.9230000000	89
53.9530000000	93
53.9830000000	108
54.0130000000	120
54.0430000000	122
54.0730000000	113
54.1030000000	90
54.1330000000	94
54.1630000000	73
54.1930000000	66
54.2230000000	68
54.2530000000	62
54.2830000000	60
54.3130000000	66
54.3430000000	57
54.3730000000	52
54.4030000000	43
54.4330000000	66
54.4630000000	56
54.4930000000	60
54.5230000000	57
54.5530000000	48
54.5830000000	47
54.6130000000	47
54.6430000000	37
54.6730000000	39
54.7030000000	59
54.7330000000	57
54.7630000000	51
54.7930000000	43
54.8230000000	49
54.8530000000	63
54.8830000000	48
54.9130000000	55
54.9430000000	58
54.9730000000	49
55.0030000000	57
55.0330000000	66
55.0630000000	56
55.0930000000	79
55.1230000000	104
55.1530000000	123
55.1830000000	114
55.2130000000	132
55.2430000000	121
55.2730000000	118
55.3030000000	102
55.3330000000	79
55.3630000000	77
55.3930000000	83
55.4230000000	85
55.4530000000	97
55.4830000000	123
55.5130000000	147
55.5430000000	139
55.5730000000	136
55.6030000000	130
55.6330000000	109
55.6630000000	103
55.6930000000	86
55.7230000000	74
55.7530000000	83
55.7830000000	67
55.8130000000	61
55.8430000000	56
55.8730000000	54
55.9030000000	47
55.9330000000	51
55.9630000000	42
55.9930000000	60
56.0230000000	41
56.0530000000	43
56.0830000000	47
56.1130000000	46
56.1430000000	49
56.1730000000	58
56.2030000000	37
56.2330000000	41
56.2630000000	45
56.2930000000	43
56.3230000000	28
56.3530000000	45
56.3830000000	50
56.4130000000	41
56.4430000000	52
56.4730000000	56
56.5030000000	43
56.5330000000	43
56.5630000000	44
56.5930000000	43
56.6230000000	41
56.6530000000	53
56.6830000000	44
56.7130000000	48
56.7430000000	38
56.7730000000	55
56.8030000000	44
56.8330000000	49
56.8630000000	49
56.8930000000	55
56.9230000000	44
56.9530000000	55
56.9830000000	41
57.0130000000	46
57.0430000000	44
57.0730000000	50
57.1030000000	50
57.1330000000	39
57.1630000000	42
57.1930000000	41
57.2230000000	48
57.2530000000	50
57.2830000000	52
57.3130000000	53
57.3430000000	50
57.3730000000	64
57.4030000000	48
57.4330000000	44
57.4630000000	48
57.4930000000	43
57.5230000000	53
57.5530000000	41
57.5830000000	48
57.6130000000	48
57.6430000000	42
57.6730000000	41
57.7030000000	53
57.7330000000	53
57.7630000000	39
57.7930000000	37
57.8230000000	31
57.8530000000	45
57.8830000000	51
57.9130000000	44
57.9430000000	41
57.9730000000	35
58.0030000000	58
58.0330000000	42
58.0630000000	57
58.0930000000	29
58.1230000000	42
58.1530000000	48
58.1830000000	39
58.2130000000	42
58.2430000000	39
58.2730000000	40
58.3030000000	37
58.3330000000	50
58.3630000000	56
58.3930000000	38
58.4230000000	29
58.4530000000	40
58.4830000000	46
58.5130000000	41
58.5430000000	46
58.5730000000	47
58.6030000000	44
58.6330000000	45
58.6630000000	44
58.6930000000	40
58.7230000000	40
58.7530000000	36
58.7830000000	42
58.8130000000	47
58.8430000000	34
58.8730000000	40
58.9030000000	43
58.9330000000	44
58.9630000000	42
58.9930000000	33
59.0230000000	37
59.0530000000	48
59.0830000000	38
59.1130000000	33
59.1430000000	43
59.1730000000	46
59.2030000000	40
59.2330000000	50
59.2630000000	42
59.2930000000	42
59.3230000000	47
59.3530000000	40
59.3830000000	29
59.4130000000	63
59.4430000000	56
59.4730000000	44
59.5030000000	41
59.5330000000	40
59.5630000000	53
59.5930000000	39
59.6230000000	49
59.6530000000	51
59.6830000000	35
59.7130000000	39
59.7430000000	43
59.7730000000	41
59.8030000000	42
59.8330000000	50
59.8630000000	45
59.8930000000	48
59.9230000000	51
59.9530000000	33
59.9830000000	55
60.0130000000	41
60.0430000000	31
60.0730000000	44
60.1030000000	39
60.1330000000	52
60.1630000000	51
60.1930000000	57
60.2230000000	49
60.2530000000	43
60.2830000000	64
60.3130000000	73
60.3430000000	95
60.3730000000	110
60.4030000000	151
60.4330000000	144
60.4630000000	146
60.4930000000	118
60.5230000000	104
60.5530000000	84
60.5830000000	95
60.6130000000	77
60.6430000000	63
60.6730000000	63
60.7030000000	45
60.7330000000	47
60.7630000000	49
60.7930000000	43
60.8230000000	50
60.8530000000	49
60.8830000000	49
60.9130000000	47
60.9430000000	41
60.9730000000	46
61.0030000000	44
61.0330000000	39
61.0630000000	44
61.0930000000	46
61.1230000000	46
61.1530000000	44
61.1830000000	43
61.2130000000	53
61.2430000000	56
61.2730000000	49
61.3030000000	58
61.3330000000	59
61.3630000000	49
61.3930000000	55
61.4230000000	61
61.4530000000	66
61.4830000000	66
61.5130000000	76
61.5430000000	83
61.5730000000	126
61.6030000000	139
61.6330000000	141
61.6630000000	123
61.6930000000	105
61.7230000000	96
61.7530000000	100
61.7830000000	95
61.8130000000	61
61.8430000000	67
61.8730000000	50
61.9030000000	43
61.9330000000	39
61.9630000000	46
61.9930000000	36
62.0230000000	51
62.0530000000	36
62.0830000000	46
62.1130000000	39
62.1430000000	52
62.1730000000	53
62.2030000000	39
62.2330000000	44
62.2630000000	42
62.2930000000	44
62.3230000000	38
62.3530000000	36
62.3830000000	40
62.4130000000	38
62.4430000000	28
62.4730000000	44
62.5030000000	51
62.5330000000	49
62.5630000000	29
62.5930000000	45
62.6230000000	44
62.6530000000	47
62.6830000000	37
62.7130000000	45
62.7430000000	42
62.7730000000	35
62.8030000000	42
62.8330000000	36
62.8630000000	47
62.8930000000	48
62.9230000000	38
62.9530000000	55
62.9830000000	46
63.0130000000	40
63.0430000000	38
63.0730000000	41
63.1030000000	36
63.1330000000	42
63.1630000000	40
63.1930000000	35
63.2230000000	43
63.2530000000	41
63.2830000000	44
63.3130000000	44
63.3430000000	46
63.3730000000	51
63.4030000000	49
63.4330000000	57
63.4630000000	50
63.4930000000	59
63.5230000000	55
63.5530000000	49
63.5830000000	50
63.6130000000	44
63.6430000000	59
63.6730000000	54
63.7030000000	49
63.7330000000	56
63.7630000000	46
63.7930000000	52
63.8230000000	47
63.8530000000	48
63.8830000000	31
63.9130000000	37
63.9430000000	39
63.9730000000	49
64.0030000000	35
64.0330000000	48
64.0630000000	44
64.0930000000	48
64.1230000000	40
64.1530000000	34
64.1830000000	43
64.2130000000	41
64.2430000000	43
64.2730000000	37
64.3030000000	45
64.3330000000	36
64.3630000000	60
64.3930000000	47
64.4230000000	39
64.4530000000	26
64.4830000000	35
64.5130000000	49
64.5430000000	41
64.5730000000	49
64.6030000000	48
64.6330000000	47
64.6630000000	48
64.6930000000	50
64.7230000000	43
64.7530000000	44
64.7830000000	45
64.8130000000	59
64.8430000000	51
64.8730000000	56
64.9030000000	43
64.9330000000	45
64.9630000000	46
64.9930000000	53
65.0230000000	44
65.0530000000	30
65.0830000000	47
65.1130000000	47
65.1430000000	42
65.1730000000	42
65.2030000000	43
65.2330000000	42
65.2630000000	46
65.2930000000	39
65.3230000000	33
65.3530000000	51
65.3830000000	56
65.4130000000	33
65.4430000000	46
65.4730000000	40
65.5030000000	43
65.5330000000	44
65.5630000000	48
65.5930000000	32
65.6230000000	38
65.6530000000	41
65.6830000000	49
65.7130000000	39
65.7430000000	39
65.7730000000	42
65.8030000000	44
65.8330000000	38
65.8630000000	39
65.8930000000	31
65.9230000000	35
65.9530000000	50
65.9830000000	42
66.0130000000	40
66.0430000000	53
66.0730000000	41
66.1030000000	38
66.1330000000	45
66.1630000000	59
66.1930000000	43
66.2230000000	46
66.2530000000	44
66.2830000000	65
66.3130000000	82
66.3430000000	110
66.3730000000	145
66.4030000000	142
66.4330000000	149
66.4630000000	142
66.4930000000	143
66.5230000000	132
66.5530000000	115
66.5830000000	114
66.6130000000	112
66.6430000000	95
66.6730000000	83
66.7030000000	65
66.7330000000	59
66.7630000000	59
66.7930000000	49
66.8230000000	60
66.8530000000	50
66.8830000000	54
66.9130000000	54
66.9430000000	45
66.9730000000	47
67.0030000000	44
67.0330000000	36
67.0630000000	54
67.0930000000	47
67.1230000000	48
67.1530000000	43
67.1830000000	37
67.2130000000	43
67.2430000000	44
67.2730000000	35
67.3030000000	45
67.3330000000	42
67.3630000000	49
67.3930000000	50
67.4230000000	47
67.4530000000	38
67.4830000000	32
67.5130000000	42
67.5430000000	34
67.5730000000	39
67.6030000000	35
67.6330000000	39
67.6630000000	39
67.6930000000	49
67.7230000000	39
67.7530000000	39
67.7830000000	37
67.8130000000	34
67.8430000000	39
67.8730000000	45
67.9030000000	44
67.9330000000	40
67.9630000000	37
67.9930000000	47
68.0230000000	31
68.0530000000	38
68.0830000000	39
68.1130000000	26
68.1430000000	36
68.1730000000	47
68.2030000000	34
68.2330000000	48
68.2630000000	41
68.2930000000	46
68.3230000000	37
68.3530000000	36
68.3830000000	41
68.4130000000	42
68.4430000000	33
68.4730000000	42
68.5030000000	40
68.5330000000	56
68.5630000000	47
68.5930000000	54
68.6230000000	48
68.6530000000	28
68.6830000000	26
68.7130000000	33
68.7430000000	42
68.7730000000	38
68.8030000000	36
68.8330000000	33
68.8630000000	37
68.8930000000	46
68.9230000000	33
68.9530000000	39
68.9830000000	32
69.0130000000	46
69.0430000000	34
69.0730000000	44
69.1030000000	36
69.1330000000	37
69.1630000000	48
69.1930000000	41
69.2230000000	30
69.2530000000	46
69.2830000000	32
69.3130000000	43
69.3430000000	42
69.3730000000	43
69.4030000000	45
69.4330000000	36
69.4630000000	50
69.4930000000	51
69.5230000000	40
69.5530000000	45
69.5830000000	45
69.6130000000	46
69.6430000000	48
69.6730000000	54
69.7030000000	47
69.7330000000	36
69.7630000000	39
69.7930000000	52
69.8230000000	42
69.8530000000	50
69.8830000000	45
69.9130000000	44
69.9430000000	43
69.9730000000	43
70.0030000000	38
70.0330000000	38
70.0630000000	37
70.0930000000	42
70.1230000000	45
70.1530000000	47
70.1830000000	30
70.2130000000	39
70.2430000000	51
70.2730000000	52
70.3030000000	39
70.3330000000	49
70.3630000000	36
70.3930000000	40
70.4230000000	43
70.4530000000	43
70.4830000000	35
70.5130000000	45
70.5430000000	47
70.5730000000	36
70.6030000000	42
70.6330000000	42
70.6630000000	41
70.6930000000	47
70.7230000000	47
70.7530000000	44
70.7830000000	50
70.8130000000	38
70.8430000000	44
70.8730000000	47
70.9030000000	48
70.9330000000	32
70.9630000000	40
70.9930000000	37
71.0230000000	33
71.0530000000	39
71.0830000000	42
71.1130000000	43
71.1430000000	44
71.1730000000	38
71.2030000000	42
71.2330000000	43
71.2630000000	45
71.2930000000	51
71.3230000000	28
71.3530000000	39
71.3830000000	40
71.4130000000	39
71.4430000000	35
71.4730000000	39
71.5030000000	39
71.5330000000	33
71.5630000000	43
71.5930000000	36
71.6230000000	32
71.6530000000	42
71.6830000000	38
71.7130000000	35
71.7430000000	43
71.7730000000	40
71.8030000000	42
71.8330000000	42
71.8630000000	37
71.8930000000	41
71.9230000000	39
71.9530000000	49
71.9830000000	34
72.0130000000	43
72.0430000000	50
72.0730000000	51
72.1030000000	42
72.1330000000	49
72.1630000000	63
72.1930000000	55
72.2230000000	59
72.2530000000	55
72.2830000000	42
72.3130000000	43
72.3430000000	36
72.3730000000	52
72.4030000000	59
72.4330000000	55
72.4630000000	57
72.4930000000	74
72.5230000000	65
72.5530000000	102
72.5830000000	88
72.6130000000	111
72.6430000000	119
72.6730000000	105
72.7030000000	95
72.7330000000	80
72.7630000000	94
72.7930000000	87
72.8230000000	94
72.8530000000	78
72.8830000000	88
72.9130000000	81
72.9430000000	91
72.9730000000	120
73.0030000000	132
73.0330000000	144
73.0630000000	157
73.0930000000	179
73.1230000000	130
73.1530000000	139
73.1830000000	115
73.2130000000	109
73.2430000000	121
73.2730000000	95
73.3030000000	79
73.3330000000	70
73.3630000000	53
73.3930000000	58
73.4230000000	54
73.4530000000	54
73.4830000000	55
73.5130000000	49
73.5430000000	49
73.5730000000	64
73.6030000000	65
73.6330000000	51
73.6630000000	39
73.6930000000	41
73.7230000000	45
73.7530000000	38
73.7830000000	37
73.8130000000	46
73.8430000000	46
73.8730000000	41
73.9030000000	52
73.9330000000	46
73.9630000000	51
73.9930000000	50
74.0230000000	38
74.0530000000	43
74.0830000000	49
74.1130000000	34
74.1430000000	48
74.1730000000	40
74.2030000000	47
74.2330000000	45
74.2630000000	46
74.2930000000	39
74.3230000000	41
74.3530000000	27
74.3830000000	42
74.4130000000	42
74.4430000000	49
74.4730000000	43
74.5030000000	37
74.5330000000	43
74.5630000000	48
74.5930000000	42
74.6230000000	40
74.6530000000	43
74.6830000000	42
74.7130000000	53
74.7430000000	59
74.7730000000	48
74.8030000000	59
74.8330000000	40
74.8630000000	65
74.8930000000	52
74.9230000000	46
74.9530000000	61
74.9830000000	54
75.0130000000	56
75.0430000000	50
75.0730000000	52
75.1030000000	55
75.1330000000	53
75.1630000000	44
75.1930000000	35
75.2230000000	38
75.2530000000	53
75.2830000000	49
75.3130000000	50
75.3430000000	42
75.3730000000	44
75.4030000000	55
75.4330000000	54
75.4630000000	46
75.4930000000	49
75.5230000000	46
75.5530000000	38
75.5830000000	42
75.6130000000	45
75.6430000000	53
75.6730000000	46
75.7030000000	60
75.7330000000	42
75.7630000000	39
75.7930000000	39
75.8230000000	38
75.8530000000	44
75.8830000000	37
75.9130000000	44
75.9430000000	41
75.9730000000	34
76.0030000000	38
76.0330000000	38
76.0630000000	40
76.0930000000	43
76.1230000000	40
76.1530000000	38
76.1830000000	37
76.2130000000	45
76.2430000000	35
76.2730000000	36
76.3030000000	29
76.3330000000	41
76.3630000000	41
76.3930000000	36
76.4230000000	40
76.4530000000	40
76.4830000000	42
76.5130000000	42
76.5430000000	41
76.5730000000	44
76.6030000000	42
76.6330000000	38
76.6630000000	49
76.6930000000	34
76.7230000000	43
76.7530000000	43
76.7830000000	47
76.8130000000	43
76.8430000000	43
76.8730000000	29
76.9030000000	39
76.9330000000	41
76.9630000000	32
76.9930000000	39
77.0230000000	40
77.0530000000	36
77.0830000000	47
77.1130000000	42
77.1430000000	35
77.1730000000	33
77.2030000000	32
77.2330000000	40
77.2630000000	39
77.2930000000	43
77.3230000000	42
77.3530000000	40
77.3830000000	32
77.4130000000	45
77.4430000000	38
77.4730000000	41
77.5030000000	37
77.5330000000	49
77.5630000000	72
77.5930000000	53
77.6230000000	74
77.6530000000	84
77.6830000000	78
77.7130000000	68
77.7430000000	69
77.7730000000	69
77.8030000000	64
77.8330000000	54
77.8630000000	65
77.8930000000	57
77.9230000000	52
77.9530000000	53
77.9830000000	48
78.0130000000	48
78.0430000000	52
78.0730000000	51
78.1030000000	56
78.1330000000	44
78.1630000000	42
78.1930000000	48
78.2230000000	48
78.2530000000	41
78.2830000000	46
78.3130000000	45
78.3430000000	41
78.3730000000	35
78.4030000000	45
78.4330000000	44
78.4630000000	39
78.4930000000	30
78.5230000000	40
78.5530000000	37
78.5830000000	42
78.6130000000	36
78.6430000000	44
78.6730000000	39
78.7030000000	34
78.7330000000	42
78.7630000000	37
78.7930000000	46
78.8230000000	59
78.8530000000	49
78.8830000000	48
78.9130000000	42
78.9430000000	50
78.9730000000	44
79.0030000000	43
79.0330000000	51
79.0630000000	48
79.0930000000	46
79.1230000000	42
79.1530000000	44
79.1830000000	40
79.2130000000	46
79.2430000000	32
79.2730000000	37
79.3030000000	36
79.3330000000	37
79.3630000000	34
79.3930000000	33
79.4230000000	48
79.4530000000	39
79.4830000000	38
79.5130000000	48
79.5430000000	40
79.5730000000	37
79.6030000000	38
79.6330000000	45
79.6630000000	37
79.6930000000	42
79.7230000000	40
79.7530000000	39
79.7830000000	31
79.8130000000	44
79.8430000000	37
79.8730000000	52
79.9030000000	42
79.9330000000	42
79.9630000000	48
79.9930000000	42
80.0230000000	41
80.0530000000	34
80.0830000000	46
80.1130000000	45
80.1430000000	36
80.1730000000	46
80.2030000000	46
80.2330000000	38
80.2630000000	45
80.2930000000	39
80.3230000000	31
80.3530000000	37
80.3830000000	41
80.4130000000	33
80.4430000000	37
80.4730000000	36
80.5030000000	40
80.5330000000	26
80.5630000000	39
80.5930000000	44
80.6230000000	45
80.6530000000	36
80.6830000000	48
80.7130000000	35
80.7430000000	37
80.7730000000	69
80.8030000000	54
80.8330000000	51
80.8630000000	60
80.8930000000	66
80.9230000000	47
80.9530000000	53
80.9830000000	53
81.0130000000	46
81.0430000000	46
81.0730000000	49
81.1030000000	56
81.1330000000	46
81.1630000000	43
81.1930000000	44
81.2230000000	45
81.2530000000	42
81.2830000000	33
81.3130000000	38
81.3430000000	44
81.3730000000	54
81.4030000000	48
81.4330000000	44
81.4630000000	47
81.4930000000	28
81.5230000000	51
81.5530000000	41
81.5830000000	40
81.6130000000	38
81.6430000000	43
81.6730000000	39
81.7030000000	36
81.7330000000	39
81.7630000000	42
81.7930000000	31
81.8230000000	28
81.8530000000	33
81.8830000000	42
81.9130000000	41
81.9430000000	44
81.9730000000	33
82.0030000000	37
82.0330000000	42
82.0630000000	39
82.0930000000	31
82.1230000000	34
82.1530000000	38
82.1830000000	33
82.2130000000	35
82.2430000000	39
82.2730000000	33
82.3030000000	29
82.3330000000	39
82.3630000000	35
82.3930000000	34
82.4230000000	38
82.4530000000	41
82.4830000000	29
82.5130000000	33
82.5430000000	34
82.5730000000	35
82.6030000000	34
82.6330000000	39
82.6630000000	39
82.6930000000	30
82.7230000000	36
82.7530000000	38
82.7830000000	29
82.8130000000	45
82.8430000000	41
82.8730000000	29
82.9030000000	32
82.9330000000	27
82.9630000000	42
82.9930000000	46
83.0230000000	45
83.0530000000	38
83.0830000000	38
83.1130000000	36
83.1430000000	41
83.1730000000	49
83.2030000000	34
83.2330000000	48
83.2630000000	40
83.2930000000	43
83.3230000000	55
83.3530000000	42
83.3830000000	41
83.4130000000	43
83.4430000000	39
83.4730000000	38
83.5030000000	56
83.5330000000	49
83.5630000000	47
83.5930000000	57
83.6230000000	62
83.6530000000	51
83.6830000000	60
83.7130000000	46
83.7430000000	51
83.7730000000	43
83.8030000000	44
83.8330000000	52
83.8630000000	43
83.8930000000	38
83.9230000000	30
83.9530000000	34
83.9830000000	30
84.0130000000	42
84.0430000000	30
84.0730000000	37
84.1030000000	38
84.1330000000	28
84.1630000000	34
84.1930000000	29
84.2230000000	41
84.2530000000	38
84.2830000000	44
84.3130000000	34
84.3430000000	40
84.3730000000	37
84.4030000000	45
84.4330000000	39
84.4630000000	39
84.4930000000	36
84.5230000000	33
84.5530000000	38
84.5830000000	38
84.6130000000	32
84.6430000000	34
84.6730000000	21
84.7030000000	28
84.7330000000	33
84.7630000000	31
84.7930000000	41
84.8230000000	39
84.8530000000	26
84.8830000000	33
84.9130000000	36
84.9430000000	43
84.9730000000	38
85.0030000000	36
85.0330000000	32
85.0630000000	36
85.0930000000	33
85.1230000000	37
85.1530000000	34
85.1830000000	32
85.2130000000	41
85.2430000000	36
85.2730000000	29
85.3030000000	33
85.3330000000	33
85.3630000000	41
85.3930000000	34
85.4230000000	29
85.4530000000	42
85.4830000000	37
85.5130000000	34
85.5430000000	30
85.5730000000	29
85.6030000000	36
85.6330000000	35
85.6630000000	34
85.6930000000	32
85.7230000000	58
85.7530000000	48
85.7830000000	44
85.8130000000	42
85.8430000000	42
85.8730000000	37
85.9030000000	38
85.9330000000	55
85.9630000000	54
85.9930000000	36
86.0230000000	42
86.0530000000	57
86.0830000000	46
86.1130000000	49
86.1430000000	44
86.1730000000	37
86.2030000000	34
86.2330000000	34
86.2630000000	40
86.2930000000	36
86.3230000000	39
86.3530000000	44
86.3830000000	41
86.4130000000	38
86.4430000000	36
86.4730000000	34
86.5030000000	33
86.5330000000	31
86.5630000000	37
86.5930000000	33
86.6230000000	40
86.6530000000	47
86.6830000000	39
86.7130000000	39
86.7430000000	38
86.7730000000	38
86.8030000000	34
86.8330000000	41
86.8630000000	50
86.8930000000	41
86.9230000000	34
86.9530000000	38
86.9830000000	48
87.0130000000	43
87.0430000000	33
87.0730000000	37
87.1030000000	40
87.1330000000	40
87.1630000000	41
87.1930000000	43
87.2230000000	43
87.2530000000	42
87.2830000000	41
87.3130000000	41
87.3430000000	44
87.3730000000	38
87.4030000000	39
87.4330000000	44
87.4630000000	43
87.4930000000	29
87.5230000000	42
87.5530000000	48
87.5830000000	40
87.6130000000	37
87.6430000000	33
87.6730000000	27
87.7030000000	38
87.7330000000	35
87.7630000000	39
87.7930000000	28
87.8230000000	37
87.8530000000	43
87.8830000000	31
87.9130000000	40
87.9430000000	36
87.9730000000	42
88.0030000000	46
88.0330000000	49
88.0630000000	43
88.0930000000	31
88.1230000000	45
88.1530000000	47
88.1830000000	46
88.2130000000	50
88.2430000000	56
88.2730000000	37
88.3030000000	38
88.3330000000	40
88.3630000000	51
88.3930000000	40
88.4230000000	50
88.4530000000	45
88.4830000000	52
88.5130000000	43
88.5430000000	37
88.5730000000	53
88.6030000000	45
88.6330000000	50
88.6630000000	50
88.6930000000	43
88.7230000000	46
88.7530000000	34
88.7830000000	41
88.8130000000	44
88.8430000000	45
88.8730000000	41
88.9030000000	37
88.9330000000	49
88.9630000000	41
88.9930000000	44
89.0230000000	44
89.0530000000	37
89.0830000000	42
89.1130000000	40
89.1430000000	38
89.1730000000	38
89.2030000000	37
89.2330000000	43
89.2630000000	46
89.2930000000	35
89.3230000000	35
89.3530000000	36
89.3830000000	42
89.4130000000	52
89.4430000000	48
89.4730000000	41
89.5030000000	54
89.5330000000	44
89.5630000000	41
89.5930000000	49
89.6230000000	51
89.6530000000	51
89.6830000000	47
89.7130000000	42
89.7430000000	52
89.7730000000	58
89.8030000000	62
89.8330000000	57
89.8630000000	42
89.8930000000	46
89.9230000000	48
89.9530000000	50
89.9830000000	41
90.0130000000	46
90.0430000000	38
90.0730000000	44
90.1030000000	48
90.1330000000	41
90.1630000000	41
90.1930000000	44
90.2230000000	43
90.2530000000	40
90.2830000000	34
90.3130000000	43
90.3430000000	37
90.3730000000	50
90.4030000000	48
90.4330000000	39
90.4630000000	35
90.4930000000	42
90.5230000000	39
90.5530000000	46
90.5830000000	33
90.6130000000	43
90.6430000000	43
90.6730000000	50
90.7030000000	36
90.7330000000	36
90.7630000000	49
90.7930000000	45
90.8230000000	40
90.8530000000	37
90.8830000000	46
90.9130000000	32
90.9430000000	40
90.9730000000	48
91.0030000000	43
91.0330000000	30
91.0630000000	40
91.0930000000	34
91.1230000000	46
91.1530000000	28
91.1830000000	40
91.2130000000	44
91.2430000000	47
91.2730000000	43
91.3030000000	48
91.3330000000	43
91.3630000000	34
91.3930000000	34
91.4230000000	38
91.4530000000	44
91.4830000000	38
91.5130000000	32
91.5430000000	37
91.5730000000	35
91.6030000000	31
91.6330000000	30
91.6630000000	37
91.6930000000	47
91.7230000000	42
91.7530000000	42
91.7830000000	43
91.8130000000	37
91.8430000000	36
91.8730000000	46
91.9030000000	34
91.9330000000	32
91.9630000000	47
91.9930000000	28
92.0230000000	42
92.0530000000	46
92.0830000000	35
92.1130000000	33
92.1430000000	33
92.1730000000	33
92.2030000000	35
92.2330000000	43
92.2630000000	31
92.2930000000	39
92.3230000000	45
92.3530000000	41
92.3830000000	37
92.4130000000	37
92.4430000000	46
92.4730000000	43
92.5030000000	41
92.5330000000	30
92.5630000000	40
92.5930000000	35
92.6230000000	30
92.6530000000	43
92.6830000000	42
92.7130000000	40
92.7430000000	38
92.7730000000	45
92.8030000000	38
92.8330000000	37
92.8630000000	37
92.8930000000	36
92.9230000000	29
92.9530000000	29
92.9830000000	35
93.0130000000	41
93.0430000000	34
93.0730000000	32
93.1030000000	38
93.1330000000	41
93.1630000000	39
93.1930000000	32
93.2230000000	41
93.2530000000	48
93.2830000000	37
93.3130000000	34
93.3430000000	34
93.3730000000	45
93.4030000000	30
93.4330000000	35
93.4630000000	38
93.4930000000	33
93.5230000000	29
93.5530000000	39
93.5830000000	43
93.6130000000	37
93.6430000000	49
93.6730000000	47
93.7030000000	25
93.7330000000	29
93.7630000000	46
93.7930000000	46
93.8230000000	44
93.8530000000	49
93.8830000000	47
93.9130000000	42
93.9430000000	38
93.9730000000	43
94.0030000000	37
94.0330000000	44
94.0630000000	40
94.0930000000	46
94.1230000000	47
94.1530000000	30
94.1830000000	35
94.2130000000	41
94.2430000000	34
94.2730000000	41
94.3030000000	46
94.3330000000	37
94.3630000000	38
94.3930000000	39
94.4230000000	36
94.4530000000	45
94.4830000000	41
94.5130000000	43
94.5430000000	49
94.5730000000	45
94.6030000000	37
94.6330000000	38
94.6630000000	37
94.6930000000	38
94.7230000000	41
94.7530000000	38
94.7830000000	43
94.8130000000	43
94.8430000000	50
94.8730000000	46
94.9030000000	30
94.9330000000	41
94.9630000000	39
94.9930000000	37
95.0230000000	42
95.0530000000	42
95.0830000000	33
95.1130000000	32
95.1430000000	46
95.1730000000	32
95.2030000000	36
95.2330000000	30
95.2630000000	40
95.2930000000	49
95.3230000000	42
95.3530000000	42
95.3830000000	41
95.4130000000	37
95.4430000000	29
95.4730000000	41
95.5030000000	33
95.5330000000	35
95.5630000000	29
95.5930000000	42
95.6230000000	31
95.6530000000	36
95.6830000000	49
95.7130000000	28
95.7430000000	34
95.7730000000	30
95.8030000000	39
95.8330000000	49
95.8630000000	43
95.8930000000	37
95.9230000000	36
95.9530000000	34
95.9830000000	35
96.0130000000	38
96.0430000000	27
96.0730000000	29
96.1030000000	39
96.1330000000	30
96.1630000000	35
96.1930000000	39
96.2230000000	39
96.2530000000	32
96.2830000000	35
96.3130000000	39
96.3430000000	40
96.3730000000	40
96.4030000000	40
96.4330000000	40
96.4630000000	40
96.4930000000	25
96.5230000000	46
96.5530000000	33
96.5830000000	30
96.6130000000	46
96.6430000000	33
96.6730000000	41
96.7030000000	39
96.7330000000	40
96.7630000000	35
96.7930000000	38
96.8230000000	51
96.8530000000	39
96.8830000000	39
96.9130000000	42
96.9430000000	38
96.9730000000	33
97.0030000000	43
97.0330000000	44
97.0630000000	38
97.0930000000	41
97.1230000000	44
97.1530000000	37
97.1830000000	40
97.2130000000	43
97.2430000000	40
97.2730000000	45
97.3030000000	53
97.3330000000	51
97.3630000000	49
97.3930000000	45
97.4230000000	32
97.4530000000	27
97.4830000000	41
97.5130000000	49
97.5430000000	28
97.5730000000	34
97.6030000000	32
97.6330000000	39
97.6630000000	34
97.6930000000	41
97.7230000000	38
97.7530000000	37
97.7830000000	34
97.8130000000	31
97.8430000000	37
97.8730000000	34
97.9030000000	43
97.9330000000	33
97.9630000000	33
97.9930000000	45
98.0230000000	38
98.0530000000	49
98.0830000000	27
98.1130000000	35
98.1430000000	35
98.1730000000	28
98.2030000000	32
98.2330000000	36
98.2630000000	33
98.2930000000	37
98.3230000000	37
98.3530000000	35
98.3830000000	31
98.4130000000	39
98.4430000000	35
98.4730000000	38
98.5030000000	40
98.5330000000	37
98.5630000000	41
98.5930000000	34
98.6230000000	38
98.6530000000	39
98.6830000000	35
98.7130000000	37
98.7430000000	35
98.7730000000	35
98.8030000000	41
98.8330000000	42
98.8630000000	40
98.8930000000	37
98.9230000000	35
98.9530000000	29
98.9830000000	31
99.0130000000	34
99.0430000000	34
99.0730000000	20
99.1030000000	42
99.1330000000	36
99.1630000000	34
99.1930000000	38
99.2230000000	46
99.2530000000	40
99.2830000000	38
99.3130000000	36
99.3430000000	33
99.3730000000	33
99.4030000000	37
99.4330000000	35
99.4630000000	26
99.4930000000	40
99.5230000000	35
99.5530000000	33
99.5830000000	32
99.6130000000	31
99.6430000000	26
99.6730000000	38
99.7030000000	26
99.7330000000	38
99.7630000000	24
99.7930000000	40
99.8230000000	36
99.8530000000	43
99.8830000000	40
99.9130000000	38
99.9430000000	34
99.9730000000	40
100.0030000000	37
100.0330000000	41
100.0630000000	29
100.0930000000	33
100.1230000000	38
100.1530000000	30
100.1830000000	33
100.2130000000	32
100.2430000000	20
100.2730000000	34
100.3030000000	30
100.3330000000	33
100.3630000000	37
100.3930000000	24
100.4230000000	31
100.4530000000	34
100.4830000000	36
100.5130000000	49
100.5430000000	34
100.5730000000	35
100.6030000000	39
100.6330000000	36
100.6630000000	40
100.6930000000	42
100.7230000000	38
100.7530000000	38
100.7830000000	29
100.8130000000	38
100.8430000000	30
100.8730000000	37
100.9030000000	30
100.9330000000	34
100.9630000000	32
100.9930000000	32
101.0230000000	42
101.0530000000	34
101.0830000000	35
101.1130000000	31
101.1430000000	34
101.1730000000	26
101.2030000000	40
101.2330000000	34
101.2630000000	53
101.2930000000	43
101.3230000000	38
101.3530000000	29
101.3830000000	48
101.4130000000	44
101.4430000000	39
101.4730000000	33
101.5030000000	32
101.5330000000	36
101.5630000000	35
101.5930000000	28
101.6230000000	28
101.6530000000	36
101.6830000000	42
101.7130000000	42
101.7430000000	43
101.7730000000	33
101.8030000000	32
101.8330000000	26
101.8630000000	44
101.8930000000	29
101.9230000000	28
101.9530000000	34
101.9830000000	46
102.0130000000	34
102.0430000000	31
102.0730000000	38
102.1030000000	41
102.1330000000	33
102.1630000000	37
102.1930000000	34
102.2230000000	47
102.2530000000	35
102.2830000000	35
102.3130000000	38
102.3430000000	32
102.3730000000	28
102.4030000000	25
102.4330000000	25
102.4630000000	33
102.4930000000	41
102.5230000000	36
102.5530000000	37
102.5830000000	36
102.6130000000	40
102.6430000000	24
102.6730000000	29
102.7030000000	29
102.7330000000	43
102.7630000000	35
102.7930000000	35
102.8230000000	42
102.8530000000	28
102.8830000000	34
102.9130000000	40
102.9430000000	40
102.9730000000	40
103.0030000000	36
103.0330000000	41
103.0630000000	40
103.0930000000	37
103.1230000000	36
103.1530000000	27
103.1830000000	32
103.2130000000	41
103.2430000000	32
103.2730000000	35
103.3030000000	45
103.3330000000	27
103.3630000000	27
103.3930000000	42
103.4230000000	33
103.4530000000	51
103.4830000000	39
103.5130000000	31
103.5430000000	32
103.5730000000	29
103.6030000000	42
103.6330000000	33
103.6630000000	30
103.6930000000	37
103.7230000000	31
103.7530000000	32
103.7830000000	32
103.8130000000	37
103.8430000000	32
103.8730000000	24
103.9030000000	33
103.9330000000	37
103.9630000000	36
103.9930000000	28
104.0230000000	39
104.0530000000	32
104.0830000000	34
104.1130000000	40
104.1430000000	40
104.1730000000	35
104.2030000000	43
104.2330000000	37
104.2630000000	40
104.2930000000	32
104.3230000000	26
104.3530000000	29
104.3830000000	25
104.4130000000	37
104.4430000000	30
104.4730000000	33
104.5030000000	40
104.5330000000	39
104.5630000000	34
104.5930000000	45
104.6230000000	46
104.6530000000	34
104.6830000000	37
104.7130000000	45
104.7430000000	36
104.7730000000	47
104.8030000000	35
104.8330000000	33
104.8630000000	40
104.8930000000	44
104.9230000000	38
104.9530000000	37
104.9830000000	26
105.0130000000	33
105.0430000000	40
105.0730000000	36
105.1030000000	40
105.1330000000	44
105.1630000000	40
105.1930000000	32
105.2230000000	32
105.2530000000	37
105.2830000000	34
105.3130000000	35
105.3430000000	38
105.3730000000	36
105.4030000000	41
105.4330000000	37
105.4630000000	30
105.4930000000	32
105.5230000000	37
105.5530000000	33
105.5830000000	32
105.6130000000	33
105.6430000000	37
105.6730000000	41
105.7030000000	27
105.7330000000	25
105.7630000000	31
105.7930000000	34
105.8230000000	32
105.8530000000	22
105.8830000000	32
105.9130000000	36
105.9430000000	37
105.9730000000	46
106.0030000000	40
106.0330000000	45
106.0630000000	31
106.0930000000	34
106.1230000000	41
106.1530000000	37
106.1830000000	41
106.2130000000	35
106.2430000000	27
106.2730000000	35
106.3030000000	35
106.3330000000	31
106.3630000000	32
106.3930000000	35
106.4230000000	38
106.4530000000	39
106.4830000000	44
106.5130000000	35
106.5430000000	24
106.5730000000	42
106.6030000000	44
106.6330000000	37
106.6630000000	28
106.6930000000	39
106.7230000000	36
106.7530000000	35
106.7830000000	33
106.8130000000	36
106.8430000000	35
106.8730000000	41
106.9030000000	35
106.9330000000	45
106.9630000000	32
106.9930000000	55
107.0230000000	45
107.0530000000	48
107.0830000000	41
107.1130000000	31
107.1430000000	46
107.1730000000	44
107.2030000000	45
107.2330000000	44
107.2630000000	31
107.2930000000	47
107.3230000000	47
107.3530000000	46
107.3830000000	46
107.4130000000	31
107.4430000000	35
107.4730000000	37
107.5030000000	34
107.5330000000	38
107.5630000000	31
107.5930000000	31
107.6230000000	41
107.6530000000	31
107.6830000000	25
107.7130000000	35
107.7430000000	39
107.7730000000	47
107.8030000000	46
107.8330000000	31
107.8630000000	44
107.8930000000	53
107.9230000000	42
107.9530000000	44
107.9830000000	43
108.0130000000	33
108.0430000000	38
108.0730000000	40
108.1030000000	43
108.1330000000	45
108.1630000000	43
108.1930000000	42
108.2230000000	48
108.2530000000	39
108.2830000000	39
108.3130000000	44
108.3430000000	40
108.3730000000	35
108.4030000000	51
108.4330000000	35
108.4630000000	42
108.4930000000	28
108.5230000000	33
108.5530000000	31
108.5830000000	35
108.6130000000	29
108.6430000000	37
108.6730000000	25
108.7030000000	45
108.7330000000	38
108.7630000000	36
108.7930000000	29
108.8230000000	23
108.8530000000	27
108.8830000000	24
108.9130000000	38
108.9430000000	37
108.9730000000	44
109.0030000000	39
109.0330000000	36
109.0630000000	39
109.0930000000	41
109.1230000000	32
109.1530000000	31
109.1830000000	32
109.2130000000	43
109.2430000000	40
109.2730000000	36
109.3030000000	40
109.3330000000	34
109.3630000000	39
109.3930000000	39
109.4230000000	45
109.4530000000	31
109.4830000000	35
109.5130000000	35
109.5430000000	45
109.5730000000	40
109.6030000000	49
109.6330000000	40
109.6630000000	41
109.6930000000	40
109.7230000000	42
109.7530000000	35
109.7830000000	38
109.8130000000	45
109.8430000000	43
109.8730000000	39
109.9030000000	39
109.9330000000	48
109.9630000000	30
109.9930000000	36
110.0230000000	45
110.0530000000	32
110.0830000000	42
110.1130000000	49
110.1430000000	49
110.1730000000	52
110.2030000000	42
110.2330000000	36
110.2630000000	32
110.2930000000	32
110.3230000000	33
110.3530000000	28
110.3830000000	42
110.4130000000	43
110.4430000000	46
110.4730000000	44
110.5030000000	46
110.5330000000	36
110.5630000000	30
110.5930000000	33
110.6230000000	38
110.6530000000	41
110.6830000000	40
110.7130000000	39
110.7430000000	34
110.7730000000	43
110.8030000000	39
110.8330000000	38
110.8630000000	39
110.8930000000	31
110.9230000000	29
110.9530000000	34
110.9830000000	33
111.0130000000	39
111.0430000000	55
111.0730000000	45
111.1030000000	33
111.1330000000	38
111.1630000000	48
111.1930000000	51
111.2230000000	38
111.2530000000	33
111.2830000000	41
111.3130000000	42
111.3430000000	53
111.3730000000	33
111.4030000000	42
111.4330000000	39
111.4630000000	35
111.4930000000	51
111.5230000000	39
111.5530000000	36
111.5830000000	44
111.6130000000	46
111.6430000000	50
111.6730000000	42
111.7030000000	46
111.7330000000	31
111.7630000000	48
111.7930000000	46
111.8230000000	39
111.8530000000	38
111.8830000000	45
111.9130000000	45
111.9430000000	42
111.9730000000	41
112.0030000000	31
112.0330000000	32
112.0630000000	34
112.0930000000	33
112.1230000000	35
112.1530000000	33
112.1830000000	34
112.2130000000	37
112.2430000000	34
112.2730000000	38
112.3030000000	38
112.3330000000	41
112.3630000000	28
112.3930000000	42
112.4230000000	34
112.4530000000	36
112.4830000000	49
112.5130000000	41
112.5430000000	42
112.5730000000	45
112.6030000000	36
112.6330000000	34
112.6630000000	36
112.6930000000	37
112.7230000000	33
112.7530000000	42
112.7830000000	42
112.8130000000	21
112.8430000000	41
112.8730000000	46
112.9030000000	43
112.9330000000	38
112.9630000000	45
112.9930000000	40
113.0230000000	36
113.0530000000	49
113.0830000000	55
113.1130000000	47
113.1430000000	44
113.1730000000	41
113.2030000000	50
113.2330000000	69
113.2630000000	62
113.2930000000	66
113.3230000000	88
113.3530000000	82
113.3830000000	75
113.4130000000	60
113.4430000000	47
113.4730000000	68
113.5030000000	65
113.5330000000	47
113.5630000000	51
113.5930000000	51
113.6230000000	53
113.6530000000	62
113.6830000000	61
113.7130000000	39
113.7430000000	50
113.7730000000	48
113.8030000000	50
113.8330000000	43
113.8630000000	43
113.8930000000	53
113.9230000000	49
113.9530000000	32
113.9830000000	38
114.0130000000	35
114.0430000000	23
114.0730000000	41
114.1030000000	38
114.1330000000	47
114.1630000000	43
114.1930000000	43
114.2230000000	52
114.2530000000	47
114.2830000000	39
114.3130000000	42
114.3430000000	44
114.3730000000	46
114.4030000000	32
114.4330000000	38
114.4630000000	1
114.4930000000	1
114.5230000000	1
114.5530000000	1
114.5830000000	1
