0.3130000000	1
0.3430000000	1
0.3730000000	1
0.4030000000	1
0.4330000000	1
0.4630000000	1
0.4930000000	1
0.5230000000	1
0.5530000000	1
0.5830000000	1
0.6130000000	1
0.6430000000	1
0.6730000000	1
0.7030000000	1
0.7330000000	2
0.7630000000	1
0.7930000000	1
0.8230000000	1
0.8530000000	1
0.8830000000	1
0.9130000000	1
0.9430000000	1
0.9730000000	1
1.0030000000	1
1.0330000000	1
1.0630000000	1
1.0930000000	1
1.1230000000	2
1.1530000000	1
1.1830000000	1
1.2130000000	1
1.2430000000	1
1.2730000000	1
1.3030000000	1
1.3330000000	1
1.3630000000	1
1.3930000000	1
1.4230000000	1
1.4530000000	1
1.4830000000	1
1.5130000000	1
1.5430000000	1
1.5730000000	2
1.6030000000	2
1.6330000000	1
1.6630000000	2
1.6930000000	1
1.7230000000	1
1.7530000000	1
1.7830000000	1
1.8130000000	1
1.8430000000	2
1.8730000000	1
1.9030000000	2
1.9330000000	2
1.9630000000	1
1.9930000000	1
2.0230000000	1
2.0530000000	1
2.0830000000	1
2.1130000000	1
2.1430000000	1
2.1730000000	1
2.2030000000	1
2.2330000000	2
2.2630000000	1
2.2930000000	1
2.3230000000	2
2.3530000000	2
2.3830000000	1
2.4130000000	1
2.4430000000	1
2.4730000000	2
2.5030000000	2
2.5330000000	1
2.5630000000	1
2.5930000000	3
2.6230000000	2
2.6530000000	1
2.6830000000	1
2.7130000000	2
2.7430000000	1
2.7730000000	1
2.8030000000	2
2.8330000000	3
2.8630000000	2
2.8930000000	2
2.9230000000	1
2.9530000000	2
2.9830000000	1
3.0130000000	1
3.0430000000	1
3.0730000000	1
3.1030000000	1
3.1330000000	1
3.1630000000	2
3.1930000000	1
3.2230000000	3
3.2530000000	1
3.2830000000	1
3.3130000000	1
3.3430000000	2
3.3730000000	3
3.4030000000	1
3.4330000000	4
3.4630000000	3
3.4930000000	3
3.5230000000	2
3.5530000000	1
3.5830000000	3
3.6130000000	2
3.6430000000	3
3.6730000000	2
3.7030000000	3
3.7330000000	1
3.7630000000	1
3.7930000000	2
3.8230000000	3
3.8530000000	2
3.8830000000	4
3.9130000000	1
3.9430000000	3
3.9730000000	3
4.0030000000	3
4.0330000000	1
4.0630000000	1
4.0930000000	4
4.1230000000	2
4.1530000000	2
4.1830000000	5
4.2130000000	5
4.2430000000	2
4.2730000000	5
4.3030000000	3
4.3330000000	4
4.3630000000	6
4.3930000000	5
4.4230000000	6
4.4530000000	7
4.4830000000	5
4.5130000000	19
4.5430000000	44
4.5730000000	44
4.6030000000	79
4.6330000000	85
4.6630000000	93
4.6930000000	119
4.7230000000	145
4.7530000000	119
4.7830000000	116
4.8130000000	123
4.8430000000	152
4.8730000000	126
4.9030000000	135
4.9330000000	143
4.9630000000	151
4.9930000000	152
5.0230000000	146
5.0530000000	141
5.0830000000	133
5.1130000000	133
5.1430000000	159
5.1730000000	144
5.2030000000	129
5.2330000000	132
5.2630000000	144
5.2930000000	137
5.3230000000	156
5.3530000000	157
5.3830000000	151
5.4130000000	134
5.4430000000	154
5.4730000000	160
5.5030000000	159
5.5330000000	136
5.5630000000	147
5.5930000000	157
5.6230000000	151
5.6530000000	153
5.6830000000	145
5.7130000000	155
5.7430000000	133
5.7730000000	137
5.8030000000	146
5.8330000000	154
5.8630000000	131
5.8930000000	165
5.9230000000	156
5.9530000000	143
5.9830000000	142
6.0130000000	163
6.0430000000	142
6.0730000000	143
6.1030000000	125
6.1330000000	155
6.1630000000	152
6.1930000000	155
6.2230000000	151
6.2530000000	155
6.2830000000	138
6.3130000000	164
6.3430000000	164
6.3730000000	141
6.4030000000	151
6.4330000000	179
6.4630000000	118
6.4930000000	136
6.5230000000	152
6.5530000000	149
6.5830000000	174
6.6130000000	150
6.6430000000	129
6.6730000000	153
6.7030000000	144
6.7330000000	152
6.7630000000	135
6.7930000000	144
6.8230000000	152
6.8530000000	171
6.8830000000	150
6.9130000000	124
6.9430000000	154
6.9730000000	149
7.0030000000	149
7.0330000000	146
7.0630000000	144
7.0930000000	135
7.1230000000	126
7.1530000000	150
7.1830000000	153
7.2130000000	143
7.2430000000	147
7.2730000000	154
7.3030000000	176
7.3330000000	158
7.3630000000	148
7.3930000000	151
7.4230000000	143
7.4530000000	171
7.4830000000	163
7.5130000000	146
7.5430000000	146
7.5730000000	138
7.6030000000	141
7.6330000000	147
7.6630000000	127
7.6930000000	135
7.7230000000	153
7.7530000000	142
7.7830000000	135
7.8130000000	141
7.8430000000	140
7.8730000000	155
7.9030000000	168
7.9330000000	143
7.9630000000	143
7.9930000000	156
8.0230000000	132
8.0530000000	130
8.0830000000	142
8.1130000000	139
8.1430000000	122
8.1730000000	145
8.2030000000	150
8.2330000000	127
8.2630000000	144
8.2930000000	159
8.3230000000	129
8.3530000000	147
8.3830000000	164
8.4130000000	125
8.4430000000	154
8.4730000000	129
8.5030000000	137
8.5330000000	155
8.5630000000	153
8.5930000000	148
8.6230000000	138
8.6530000000	147
8.6830000000	141
8.7130000000	148
8.7430000000	149
8.7730000000	149
8.8030000000	156
8.8330000000	123
8.8630000000	135
8.8930000000	142
8.9230000000	128
8.9530000000	130
8.9830000000	149
9.0130000000	142
9.0430000000	144
9.0730000000	137
9.1030000000	147
9.1330000000	139
9.1630000000	151
9.1930000000	141
9.2230000000	152
9.2530000000	146
9.2830000000	161
9.3130000000	150
9.3430000000	127
9.3730000000	149
9.4030000000	131
9.4330000000	159
9.4630000000	137
9.4930000000	153
9.5230000000	133
9.5530000000	153
9.5830000000	128
9.6130000000	160
9.6430000000	139
9.6730000000	147
9.7030000000	141
9.7330000000	140
9.7630000000	170
9.7930000000	159
9.8230000000	157
9.8530000000	133
9.8830000000	154
9.9130000000	163
9.9430000000	150
9.9730000000	141
10.0030000000	114
10.0330000000	149
10.0630000000	162
10.0930000000	133
10.1230000000	159
10.1530000000	147
10.1830000000	166
10.2130000000	149
10.2430000000	134
10.2730000000	133
10.3030000000	167
10.3330000000	135
10.3630000000	149
10.3930000000	166
10.4230000000	167
10.4530000000	171
10.4830000000	174
10.5130000000	151
10.5430000000	148
10.5730000000	168
10.6030000000	140
10.6330000000	151
10.6630000000	139
10.6930000000	139
10.7230000000	137
10.7530000000	143
10.7830000000	161
10.8130000000	138
10.8430000000	137
10.8730000000	142
10.9030000000	136
10.9330000000	132
10.9630000000	144
10.9930000000	162
11.0230000000	122
11.0530000000	180
11.0830000000	137
11.1130000000	154
11.1430000000	167
11.1730000000	139
11.2030000000	145
11.2330000000	135
11.2630000000	145
11.2930000000	150
11.3230000000	149
11.3530000000	145
11.3830000000	154
11.4130000000	143
11.4430000000	144
11.4730000000	135
11.5030000000	125
11.5330000000	128
11.5630000000	147
11.5930000000	128
11.6230000000	139
11.6530000000	133
11.6830000000	174
11.7130000000	149
11.7430000000	155
11.7730000000	150
11.8030000000	162
11.8330000000	142
11.8630000000	147
11.8930000000	147
11.9230000000	163
11.9530000000	151
11.9830000000	143
12.0130000000	127
12.0430000000	145
12.0730000000	155
12.1030000000	145
12.1330000000	142
12.1630000000	159
12.1930000000	164
12.2230000000	168
12.2530000000	154
12.2830000000	136
12.3130000000	147
12.3430000000	144
12.3730000000	142
12.4030000000	135
12.4330000000	135
12.4630000000	156
12.4930000000	139
12.5230000000	152
12.5530000000	150
12.5830000000	135
12.6130000000	149
12.6430000000	145
12.6730000000	137
12.7030000000	144
12.7330000000	148
12.7630000000	144
12.7930000000	138
12.8230000000	146
12.8530000000	158
12.8830000000	146
12.9130000000	137
12.9430000000	144
12.9730000000	148
13.0030000000	136
13.0330000000	141
13.0630000000	163
13.0930000000	155
13.1230000000	140
13.1530000000	141
13.1830000000	147
13.2130000000	159
13.2430000000	135
13.2730000000	160
13.3030000000	155
13.3330000000	139
13.3630000000	144
13.3930000000	140
13.4230000000	147
13.4530000000	127
13.4830000000	140
13.5130000000	146
13.5430000000	137
13.5730000000	158
13.6030000000	132
13.6330000000	139
13.6630000000	132
13.6930000000	134
13.7230000000	136
13.7530000000	134
13.7830000000	145
13.8130000000	132
13.8430000000	155
13.8730000000	150
13.9030000000	164
13.9330000000	140
13.9630000000	153
13.9930000000	153
14.0230000000	152
14.0530000000	136
14.0830000000	138
14.1130000000	150
14.1430000000	137
14.1730000000	130
14.2030000000	143
14.2330000000	136
14.2630000000	143
14.2930000000	138
14.3230000000	133
14.3530000000	152
14.3830000000	150
14.4130000000	127
14.4430000000	145
14.4730000000	152
14.5030000000	161
14.5330000000	147
14.5630000000	125
14.5930000000	159
14.6230000000	156
14.6530000000	158
14.6830000000	136
14.7130000000	138
14.7430000000	132
14.7730000000	155
14.8030000000	159
14.8330000000	155
14.8630000000	147
14.8930000000	137
14.9230000000	160
14.9530000000	153
14.9830000000	142
15.0130000000	159
15.0430000000	158
15.0730000000	153
15.1030000000	146
15.1330000000	182
15.1630000000	153
15.1930000000	174
15.2230000000	161
15.2530000000	150
15.2830000000	154
15.3130000000	150
15.3430000000	142
15.3730000000	158
15.4030000000	144
15.4330000000	161
15.4630000000	139
15.4930000000	149
15.5230000000	163
15.5530000000	145
15.5830000000	155
15.6130000000	160
15.6430000000	149
15.6730000000	123
15.7030000000	129
15.7330000000	136
15.7630000000	142
15.7930000000	134
15.8230000000	150
15.8530000000	151
15.8830000000	162
15.9130000000	151
15.9430000000	146
15.9730000000	144
16.0030000000	146
16.0330000000	148
16.0630000000	144
16.0930000000	158
16.1230000000	154
16.1530000000	135
16.1830000000	159
16.2130000000	141
16.2430000000	124
16.2730000000	143
16.3030000000	123
16.3330000000	150
16.3630000000	161
16.3930000000	130
16.4230000000	135
16.4530000000	141
16.4830000000	159
16.5130000000	159
16.5430000000	131
16.5730000000	140
16.6030000000	156
16.6330000000	121
16.6630000000	152
16.6930000000	143
16.7230000000	150
16.7530000000	146
16.7830000000	145
16.8130000000	149
16.8430000000	140
16.8730000000	158
16.9030000000	153
16.9330000000	140
16.9630000000	143
16.9930000000	143
17.0230000000	134
17.0530000000	135
17.0830000000	142
17.1130000000	164
17.1430000000	157
17.1730000000	136
17.2030000000	130
17.2330000000	142
17.2630000000	143
17.2930000000	151
17.3230000000	137
17.3530000000	145
17.3830000000	139
17.4130000000	162
17.4430000000	154
17.4730000000	149
17.5030000000	155
17.5330000000	145
17.5630000000	129
17.5930000000	121
17.6230000000	144
17.6530000000	156
17.6830000000	144
17.7130000000	135
17.7430000000	142
17.7730000000	152
17.8030000000	144
17.8330000000	138
17.8630000000	155
17.8930000000	154
17.9230000000	135
17.9530000000	143
17.9830000000	151
18.0130000000	153
18.0430000000	151
18.0730000000	129
18.1030000000	132
18.1330000000	138
18.1630000000	146
18.1930000000	140
18.2230000000	147
18.2530000000	159
18.2830000000	145
18.3130000000	154
18.3430000000	139
18.3730000000	133
18.4030000000	150
18.4330000000	154
18.4630000000	145
18.4930000000	153
18.5230000000	145
18.5530000000	137
18.5830000000	142
18.6130000000	126
18.6430000000	145
18.6730000000	118
18.7030000000	144
18.7330000000	154
18.7630000000	154
18.7930000000	147
18.8230000000	137
18.8530000000	133
18.8830000000	161
18.9130000000	157
18.9430000000	145
18.9730000000	156
19.0030000000	150
19.0330000000	159
19.0630000000	137
19.0930000000	167
19.1230000000	159
19.1530000000	187
19.1830000000	141
19.2130000000	144
19.2430000000	137
19.2730000000	148
19.3030000000	161
19.3330000000	184
19.3630000000	156
19.3930000000	157
19.4230000000	204
19.4530000000	229
19.4830000000	287
19.5130000000	308
19.5430000000	329
19.5730000000	333
19.6030000000	334
19.6330000000	306
19.6630000000	238
19.6930000000	189
19.7230000000	156
19.7530000000	173
19.7830000000	183
19.8130000000	157
19.8430000000	159
19.8730000000	154
19.9030000000	160
19.9330000000	139
19.9630000000	146
19.9930000000	168
20.0230000000	144
20.0530000000	175
20.0830000000	164
20.1130000000	168
20.1430000000	164
20.1730000000	147
20.2030000000	154
20.2330000000	170
20.2630000000	157
20.2930000000	153
20.3230000000	144
20.3530000000	159
20.3830000000	151
20.4130000000	141
20.4430000000	149
20.4730000000	147
20.5030000000	149
20.5330000000	152
20.5630000000	129
20.5930000000	151
20.6230000000	175
20.6530000000	154
20.6830000000	154
20.7130000000	166
20.7430000000	165
20.7730000000	153
20.8030000000	141
20.8330000000	141
20.8630000000	148
20.8930000000	147
20.9230000000	156
20.9530000000	150
20.9830000000	149
21.0130000000	139
21.0430000000	163
21.0730000000	156
21.1030000000	144
21.1330000000	158
21.1630000000	139
21.1930000000	164
21.2230000000	161
21.2530000000	168
21.2830000000	142
21.3130000000	175
21.3430000000	156
21.3730000000	171
21.4030000000	141
21.4330000000	168
21.4630000000	176
21.4930000000	168
21.5230000000	157
21.5530000000	177
21.5830000000	127
21.6130000000	162
21.6430000000	182
21.6730000000	155
21.7030000000	163
21.7330000000	175
21.7630000000	166
21.7930000000	165
21.8230000000	164
21.8530000000	175
21.8830000000	154
21.9130000000	170
21.9430000000	163
21.9730000000	162
22.0030000000	188
22.0330000000	176
22.0630000000	169
22.0930000000	146
22.1230000000	154
22.1530000000	174
22.1830000000	168
22.2130000000	171
22.2430000000	170
22.2730000000	180
22.3030000000	171
22.3330000000	183
22.3630000000	179
22.3930000000	145
22.4230000000	177
22.4530000000	174
22.4830000000	147
22.5130000000	165
22.5430000000	177
22.5730000000	187
22.6030000000	194
22.6330000000	204
22.6630000000	221
22.6930000000	229
22.7230000000	242
22.7530000000	234
22.7830000000	213
22.8130000000	186
22.8430000000	187
22.8730000000	177
22.9030000000	170
22.9330000000	165
22.9630000000	172
22.9930000000	151
23.0230000000	169
23.0530000000	170
23.0830000000	181
23.1130000000	150
23.1430000000	195
23.1730000000	151
23.2030000000	175
23.2330000000	141
23.2630000000	179
23.2930000000	153
23.3230000000	164
23.3530000000	143
23.3830000000	163
23.4130000000	184
23.4430000000	170
23.4730000000	161
23.5030000000	164
23.5330000000	145
23.5630000000	177
23.5930000000	182
23.6230000000	149
23.6530000000	176
23.6830000000	180
23.7130000000	162
23.7430000000	163
23.7730000000	168
23.8030000000	152
23.8330000000	173
23.8630000000	167
23.8930000000	160
23.9230000000	183
23.9530000000	179
23.9830000000	186
24.0130000000	184
24.0430000000	155
24.0730000000	182
24.1030000000	178
24.1330000000	171
24.1630000000	165
24.1930000000	147
24.2230000000	165
24.2530000000	176
24.2830000000	152
24.3130000000	161
24.3430000000	171
24.3730000000	167
24.4030000000	187
24.4330000000	181
24.4630000000	156
24.4930000000	155
24.5230000000	168
24.5530000000	167
24.5830000000	162
24.6130000000	159
24.6430000000	158
24.6730000000	168
24.7030000000	168
24.7330000000	152
24.7630000000	178
24.7930000000	169
24.8230000000	173
24.8530000000	167
24.8830000000	164
24.9130000000	172
24.9430000000	155
24.9730000000	175
25.0030000000	187
25.0330000000	186
25.0630000000	178
25.0930000000	182
25.1230000000	173
25.1530000000	172
25.1830000000	169
25.2130000000	148
25.2430000000	153
25.2730000000	151
25.3030000000	179
25.3330000000	162
25.3630000000	169
25.3930000000	164
25.4230000000	180
25.4530000000	149
25.4830000000	176
25.5130000000	171
25.5430000000	168
25.5730000000	193
25.6030000000	173
25.6330000000	173
25.6630000000	178
25.6930000000	150
25.7230000000	193
25.7530000000	164
25.7830000000	172
25.8130000000	157
25.8430000000	186
25.8730000000	174
25.9030000000	150
25.9330000000	149
25.9630000000	182
25.9930000000	163
26.0230000000	167
26.0530000000	172
26.0830000000	172
26.1130000000	178
26.1430000000	179
26.1730000000	204
26.2030000000	237
26.2330000000	276
26.2630000000	314
26.2930000000	407
26.3230000000	583
26.3530000000	704
26.3830000000	880
26.4130000000	1013
26.4430000000	974
26.4730000000	766
26.5030000000	551
26.5330000000	403
26.5630000000	290
26.5930000000	241
26.6230000000	203
26.6530000000	200
26.6830000000	195
26.7130000000	200
26.7430000000	185
26.7730000000	165
26.8030000000	164
26.8330000000	160
26.8630000000	150
26.8930000000	143
26.9230000000	150
26.9530000000	154
26.9830000000	157
27.0130000000	153
27.0430000000	148
27.0730000000	149
27.1030000000	147
27.1330000000	156
27.1630000000	147
27.1930000000	142
27.2230000000	164
27.2530000000	146
27.2830000000	162
27.3130000000	144
27.3430000000	147
27.3730000000	152
27.4030000000	154
27.4330000000	156
27.4630000000	158
27.4930000000	163
27.5230000000	176
27.5530000000	119
27.5830000000	144
27.6130000000	139
27.6430000000	152
27.6730000000	145
27.7030000000	136
27.7330000000	139
27.7630000000	143
27.7930000000	153
27.8230000000	151
27.8530000000	162
27.8830000000	161
27.9130000000	143
27.9430000000	161
27.9730000000	148
28.0030000000	170
28.0330000000	170
28.0630000000	156
28.0930000000	136
28.1230000000	125
28.1530000000	163
28.1830000000	159
28.2130000000	142
28.2430000000	161
28.2730000000	162
28.3030000000	171
28.3330000000	189
28.3630000000	155
28.3930000000	146
28.4230000000	137
28.4530000000	151
28.4830000000	147
28.5130000000	152
28.5430000000	161
28.5730000000	172
28.6030000000	169
28.6330000000	144
28.6630000000	158
28.6930000000	149
28.7230000000	174
28.7530000000	149
28.7830000000	160
28.8130000000	173
28.8430000000	160
28.8730000000	175
28.9030000000	149
28.9330000000	122
28.9630000000	145
28.9930000000	139
29.0230000000	137
29.0530000000	155
29.0830000000	114
29.1130000000	146
29.1430000000	144
29.1730000000	137
29.2030000000	142
29.2330000000	137
29.2630000000	156
29.2930000000	146
29.3230000000	165
29.3530000000	128
29.3830000000	129
29.4130000000	140
29.4430000000	135
29.4730000000	113
29.5030000000	152
29.5330000000	113
29.5630000000	131
29.5930000000	148
29.6230000000	131
29.6530000000	132
29.6830000000	141
29.7130000000	145
29.7430000000	115
29.7730000000	143
29.8030000000	123
29.8330000000	140
29.8630000000	147
29.8930000000	143
29.9230000000	158
29.9530000000	145
29.9830000000	170
30.0130000000	148
30.0430000000	144
30.0730000000	145
30.1030000000	184
30.1330000000	185
30.1630000000	220
30.1930000000	275
30.2230000000	462
30.2530000000	610
30.2830000000	847
30.3130000000	1311
30.3430000000	1966
30.3730000000	2704
30.4030000000	2954
30.4330000000	2702
30.4630000000	2075
30.4930000000	1494
30.5230000000	909
30.5530000000	538
30.5830000000	404
30.6130000000	283
30.6430000000	220
30.6730000000	178
30.7030000000	167
30.7330000000	167
30.7630000000	165
30.7930000000	160
30.8230000000	161
30.8530000000	162
30.8830000000	136
30.9130000000	151
30.9430000000	144
30.9730000000	139
31.0030000000	123
31.0330000000	126
31.0630000000	156
31.0930000000	124
31.1230000000	138
31.1530000000	152
31.1830000000	124
31.2130000000	142
31.2430000000	117
31.2730000000	139
31.3030000000	124
31.3330000000	139
31.3630000000	135
31.3930000000	127
31.4230000000	142
31.4530000000	149
31.4830000000	146
31.5130000000	143
31.5430000000	136
31.5730000000	138
31.6030000000	154
31.6330000000	183
31.6630000000	212
31.6930000000	291
31.7230000000	394
31.7530000000	509
31.7830000000	730
31.8130000000	1066
31.8430000000	1462
31.8730000000	1678
31.9030000000	1715
31.9330000000	1469
31.9630000000	1177
31.9930000000	1040
32.0230000000	984
32.0530000000	1020
32.0830000000	1136
32.1130000000	1227
32.1430000000	1154
32.1730000000	924
32.2030000000	701
32.2330000000	511
32.2630000000	351
32.2930000000	248
32.3230000000	182
32.3530000000	175
32.3830000000	165
32.4130000000	137
32.4430000000	127
32.4730000000	127
32.5030000000	133
32.5330000000	133
32.5630000000	131
32.5930000000	122
32.6230000000	103
32.6530000000	109
32.6830000000	119
32.7130000000	112
32.7430000000	94
32.7730000000	99
32.8030000000	102
32.8330000000	101
32.8630000000	104
32.8930000000	94
32.9230000000	101
32.9530000000	117
32.9830000000	120
33.0130000000	115
33.0430000000	102
33.0730000000	113
33.1030000000	125
33.1330000000	112
33.1630000000	121
33.1930000000	130
33.2230000000	124
33.2530000000	129
33.2830000000	129
33.3130000000	131
33.3430000000	121
33.3730000000	135
33.4030000000	126
33.4330000000	115
33.4630000000	109
33.4930000000	110
33.5230000000	95
33.5530000000	122
33.5830000000	99
33.6130000000	94
33.6430000000	102
33.6730000000	118
33.7030000000	111
33.7330000000	99
33.7630000000	99
33.7930000000	99
33.8230000000	105
33.8530000000	96
33.8830000000	94
33.9130000000	97
33.9430000000	106
33.9730000000	105
34.0030000000	102
34.0330000000	116
34.0630000000	102
34.0930000000	99
34.1230000000	96
34.1530000000	96
34.1830000000	118
34.2130000000	116
34.2430000000	107
34.2730000000	92
34.3030000000	99
34.3330000000	99
34.3630000000	85
34.3930000000	105
34.4230000000	105
34.4530000000	95
34.4830000000	87
34.5130000000	89
34.5430000000	97
34.5730000000	91
34.6030000000	96
34.6330000000	74
34.6630000000	91
34.6930000000	97
34.7230000000	86
34.7530000000	87
34.7830000000	94
34.8130000000	96
34.8430000000	103
34.8730000000	99
34.9030000000	80
34.9330000000	90
34.9630000000	95
34.9930000000	98
35.0230000000	96
35.0530000000	96
35.0830000000	114
35.1130000000	116
35.1430000000	114
35.1730000000	155
35.2030000000	159
35.2330000000	182
35.2630000000	199
35.2930000000	247
35.3230000000	259
35.3530000000	283
35.3830000000	268
35.4130000000	207
35.4430000000	177
35.4730000000	149
35.5030000000	134
35.5330000000	103
35.5630000000	85
35.5930000000	82
35.6230000000	108
35.6530000000	113
35.6830000000	96
35.7130000000	98
35.7430000000	107
35.7730000000	96
35.8030000000	96
35.8330000000	112
35.8630000000	102
35.8930000000	103
35.9230000000	113
35.9530000000	116
35.9830000000	88
36.0130000000	86
36.0430000000	80
36.0730000000	93
36.1030000000	81
36.1330000000	92
36.1630000000	89
36.1930000000	101
36.2230000000	121
36.2530000000	91
36.2830000000	82
36.3130000000	110
36.3430000000	106
36.3730000000	91
36.4030000000	99
36.4330000000	128
36.4630000000	141
36.4930000000	159
36.5230000000	218
36.5530000000	271
36.5830000000	330
36.6130000000	368
36.6430000000	457
36.6730000000	419
36.7030000000	362
36.7330000000	257
36.7630000000	214
36.7930000000	146
36.8230000000	124
36.8530000000	109
36.8830000000	113
36.9130000000	99
36.9430000000	82
36.9730000000	104
37.0030000000	107
37.0330000000	82
37.0630000000	87
37.0930000000	81
37.1230000000	95
37.1530000000	91
37.1830000000	98
37.2130000000	82
37.2430000000	86
37.2730000000	95
37.3030000000	97
37.3330000000	104
37.3630000000	86
37.3930000000	94
37.4230000000	87
37.4530000000	87
37.4830000000	91
37.5130000000	80
37.5430000000	88
37.5730000000	92
37.6030000000	87
37.6330000000	86
37.6630000000	92
37.6930000000	90
37.7230000000	95
37.7530000000	83
37.7830000000	72
37.8130000000	88
37.8430000000	88
37.8730000000	78
37.9030000000	81
37.9330000000	87
37.9630000000	80
37.9930000000	89
38.0230000000	77
38.0530000000	75
38.0830000000	94
38.1130000000	89
38.1430000000	70
38.1730000000	77
38.2030000000	88
38.2330000000	86
38.2630000000	74
38.2930000000	86
38.3230000000	102
38.3530000000	94
38.3830000000	92
38.4130000000	80
38.4430000000	80
38.4730000000	79
38.5030000000	78
38.5330000000	106
38.5630000000	89
38.5930000000	89
38.6230000000	91
38.6530000000	99
38.6830000000	104
38.7130000000	99
38.7430000000	89
38.7730000000	82
38.8030000000	87
38.8330000000	87
38.8630000000	83
38.8930000000	95
38.9230000000	118
38.9530000000	112
38.9830000000	89
39.0130000000	84
39.0430000000	92
39.0730000000	80
39.1030000000	84
39.1330000000	87
39.1630000000	81
39.1930000000	94
39.2230000000	87
39.2530000000	94
39.2830000000	101
39.3130000000	98
39.3430000000	95
39.3730000000	91
39.4030000000	101
39.4330000000	103
39.4630000000	125
39.4930000000	107
39.5230000000	158
39.5530000000	201
39.5830000000	288
39.6130000000	412
39.6430000000	583
39.6730000000	836
39.7030000000	1144
39.7330000000	1187
39.7630000000	1167
39.7930000000	1046
39.8230000000	787
39.8530000000	555
39.8830000000	334
39.9130000000	266
39.9430000000	192
39.9730000000	162
40.0030000000	104
40.0330000000	111
40.0630000000	100
40.0930000000	105
40.1230000000	87
40.1530000000	77
40.1830000000	90
40.2130000000	92
40.2430000000	104
40.2730000000	91
40.3030000000	91
40.3330000000	74
40.3630000000	85
40.3930000000	73
40.4230000000	91
40.4530000000	93
40.4830000000	95
40.5130000000	88
40.5430000000	82
40.5730000000	75
40.6030000000	83
40.6330000000	88
40.6630000000	67
40.6930000000	81
40.7230000000	98
40.7530000000	82
40.7830000000	91
40.8130000000	86
40.8430000000	94
40.8730000000	86
40.9030000000	93
40.9330000000	108
40.9630000000	93
40.9930000000	83
41.0230000000	80
41.0530000000	77
41.0830000000	83
41.1130000000	98
41.1430000000	99
41.1730000000	98
41.2030000000	100
41.2330000000	83
41.2630000000	102
41.2930000000	85
41.3230000000	101
41.3530000000	85
41.3830000000	82
41.4130000000	93
41.4430000000	84
41.4730000000	70
41.5030000000	84
41.5330000000	104
41.5630000000	97
41.5930000000	87
41.6230000000	94
41.6530000000	80
41.6830000000	77
41.7130000000	87
41.7430000000	73
41.7730000000	88
41.8030000000	74
41.8330000000	71
41.8630000000	90
41.8930000000	76
41.9230000000	89
41.9530000000	84
41.9830000000	88
42.0130000000	91
42.0430000000	82
42.0730000000	81
42.1030000000	73
42.1330000000	96
42.1630000000	93
42.1930000000	74
42.2230000000	84
42.2530000000	90
42.2830000000	83
42.3130000000	72
42.3430000000	74
42.3730000000	85
42.4030000000	85
42.4330000000	80
42.4630000000	83
42.4930000000	90
42.5230000000	82
42.5530000000	59
42.5830000000	74
42.6130000000	95
42.6430000000	78
42.6730000000	82
42.7030000000	87
42.7330000000	81
42.7630000000	99
42.7930000000	104
42.8230000000	96
42.8530000000	113
42.8830000000	106
42.9130000000	113
42.9430000000	147
42.9730000000	176
43.0030000000	230
43.0330000000	301
43.0630000000	465
43.0930000000	681
43.1230000000	921
43.1530000000	1167
43.1830000000	1272
43.2130000000	1201
43.2430000000	1030
43.2730000000	756
43.3030000000	579
43.3330000000	390
43.3630000000	238
43.3930000000	194
43.4230000000	142
43.4530000000	144
43.4830000000	118
43.5130000000	94
43.5430000000	102
43.5730000000	109
43.6030000000	120
43.6330000000	86
43.6630000000	117
43.6930000000	122
43.7230000000	115
43.7530000000	110
43.7830000000	122
43.8130000000	95
43.8430000000	103
43.8730000000	97
43.9030000000	95
43.9330000000	82
43.9630000000	93
43.9930000000	82
44.0230000000	77
44.0530000000	86
44.0830000000	65
44.1130000000	72
44.1430000000	69
44.1730000000	71
44.2030000000	68
44.2330000000	87
44.2630000000	75
44.2930000000	79
44.3230000000	85
44.3530000000	77
44.3830000000	65
44.4130000000	80
44.4430000000	71
44.4730000000	67
44.5030000000	76
44.5330000000	74
44.5630000000	75
44.5930000000	76
44.6230000000	78
44.6530000000	109
44.6830000000	92
44.7130000000	72
44.7430000000	80
44.7730000000	107
44.8030000000	78
44.8330000000	87
44.8630000000	132
44.8930000000	164
44.9230000000	227
44.9530000000	294
44.9830000000	407
45.0130000000	630
45.0430000000	674
45.0730000000	806
45.1030000000	706
45.1330000000	651
45.1630000000	547
45.1930000000	396
45.2230000000	266
45.2530000000	185
45.2830000000	150
45.3130000000	122
45.3430000000	102
45.3730000000	81
45.4030000000	86
45.4330000000	84
45.4630000000	78
45.4930000000	78
45.5230000000	71
45.5530000000	74
45.5830000000	73
45.6130000000	63
45.6430000000	54
45.6730000000	51
45.7030000000	56
45.7330000000	71
45.7630000000	77
45.7930000000	62
45.8230000000	75
45.8530000000	77
45.8830000000	74
45.9130000000	76
45.9430000000	94
45.9730000000	120
46.0030000000	130
46.0330000000	177
46.0630000000	184
46.0930000000	206
46.1230000000	170
46.1530000000	159
46.1830000000	150
46.2130000000	119
46.2430000000	120
46.2730000000	88
46.3030000000	77
46.3330000000	88
46.3630000000	95
46.3930000000	95
46.4230000000	95
46.4530000000	93
46.4830000000	128
46.5130000000	104
46.5430000000	88
46.5730000000	92
46.6030000000	103
46.6330000000	87
46.6630000000	84
46.6930000000	67
46.7230000000	72
46.7530000000	88
46.7830000000	92
46.8130000000	109
46.8430000000	129
46.8730000000	148
46.9030000000	256
46.9330000000	272
46.9630000000	285
46.9930000000	285
47.0230000000	235
47.0530000000	215
47.0830000000	178
47.1130000000	134
47.1430000000	100
47.1730000000	63
47.2030000000	86
47.2330000000	82
47.2630000000	63
47.2930000000	70
47.3230000000	70
47.3530000000	76
47.3830000000	70
47.4130000000	66
47.4430000000	80
47.4730000000	88
47.5030000000	88
47.5330000000	80
47.5630000000	80
47.5930000000	67
47.6230000000	76
47.6530000000	74
47.6830000000	70
47.7130000000	65
47.7430000000	80
47.7730000000	64
47.8030000000	61
47.8330000000	60
47.8630000000	57
47.8930000000	69
47.9230000000	60
47.9530000000	53
47.9830000000	51
48.0130000000	49
48.0430000000	69
48.0730000000	64
48.1030000000	83
48.1330000000	69
48.1630000000	60
48.1930000000	43
48.2230000000	54
48.2530000000	47
48.2830000000	55
48.3130000000	69
48.3430000000	60
48.3730000000	72
48.4030000000	48
48.4330000000	63
48.4630000000	74
48.4930000000	55
48.5230000000	55
48.5530000000	69
48.5830000000	66
48.6130000000	53
48.6430000000	47
48.6730000000	56
48.7030000000	46
48.7330000000	53
48.7630000000	54
48.7930000000	39
48.8230000000	49
48.8530000000	61
48.8830000000	52
48.9130000000	59
48.9430000000	63
48.9730000000	52
49.0030000000	57
49.0330000000	63
49.0630000000	55
49.0930000000	61
49.1230000000	56
49.1530000000	48
49.1830000000	55
49.2130000000	62
49.2430000000	57
49.2730000000	65
49.3030000000	52
49.3330000000	63
49.3630000000	62
49.3930000000	57
49.4230000000	54
49.4530000000	58
49.4830000000	51
49.5130000000	65
49.5430000000	56
49.5730000000	61
49.6030000000	54
49.6330000000	59
49.6630000000	56
49.6930000000	47
49.7230000000	68
49.7530000000	54
49.7830000000	49
49.8130000000	55
49.8430000000	58
49.8730000000	54
49.9030000000	47
49.9330000000	59
49.9630000000	68
49.9930000000	60
50.0230000000	52
50.0530000000	58
50.0830000000	54
50.1130000000	57
50.1430000000	50
50.1730000000	52
50.2030000000	67
50.2330000000	51
50.2630000000	64
50.2930000000	67
50.3230000000	60
50.3530000000	69
50.3830000000	73
50.4130000000	67
50.4430000000	90
50.4730000000	88
50.5030000000	80
50.5330000000	77
50.5630000000	99
50.5930000000	79
50.6230000000	83
50.6530000000	64
50.6830000000	69
50.7130000000	61
50.7430000000	50
50.7730000000	52
50.8030000000	52
50.8330000000	65
50.8630000000	61
50.8930000000	51
50.9230000000	52
50.9530000000	54
50.9830000000	58
51.0130000000	58
51.0430000000	54
51.0730000000	49
51.1030000000	46
51.1330000000	44
51.1630000000	55
51.1930000000	50
51.2230000000	43
51.2530000000	53
51.2830000000	60
51.3130000000	47
51.3430000000	52
51.3730000000	60
51.4030000000	53
51.4330000000	47
51.4630000000	43
51.4930000000	54
51.5230000000	60
51.5530000000	53
51.5830000000	56
51.6130000000	50
51.6430000000	59
51.6730000000	54
51.7030000000	54
51.7330000000	60
51.7630000000	51
51.7930000000	47
51.8230000000	45
51.8530000000	51
51.8830000000	53
51.9130000000	60
51.9430000000	53
51.9730000000	68
52.0030000000	60
52.0330000000	63
52.0630000000	53
52.0930000000	83
52.1230000000	88
52.1530000000	94
52.1830000000	70
52.2130000000	73
52.2430000000	73
52.2730000000	83
52.3030000000	75
52.3330000000	71
52.3630000000	58
52.3930000000	58
52.4230000000	66
52.4530000000	40
52.4830000000	50
52.5130000000	30
52.5430000000	54
52.5730000000	42
52.6030000000	41
52.6330000000	53
52.6630000000	63
52.6930000000	49
52.7230000000	47
52.7530000000	39
52.7830000000	48
52.8130000000	48
52.8430000000	37
52.8730000000	43
52.9030000000	59
52.9330000000	52
52.9630000000	57
52.9930000000	36
53.0230000000	51
53.0530000000	60
53.0830000000	50
53.1130000000	42
53.1430000000	58
53.1730000000	44
53.2030000000	45
53.2330000000	56
53.2630000000	51
53.2930000000	54
53.3230000000	55
53.3530000000	47
53.3830000000	58
53.4130000000	56
53.4430000000	50
53.4730000000	54
53.5030000000	61
53.5330000000	47
53.5630000000	51
53.5930000000	53
53.6230000000	58
53.6530000000	49
53.6830000000	55
53.7130000000	63
53.7430000000	63
53.7730000000	72
53.8030000000	92
53.8330000000	112
53.8630000000	128
53.8930000000	128
53.9230000000	114
53.9530000000	97
53.9830000000	95
54.0130000000	93
54.0430000000	78
54.0730000000	76
54.1030000000	54
54.1330000000	45
54.1630000000	52
54.1930000000	63
54.2230000000	49
54.2530000000	50
54.2830000000	56
54.3130000000	58
54.3430000000	48
54.3730000000	51
54.4030000000	53
54.4330000000	63
54.4630000000	55
54.4930000000	59
54.5230000000	62
54.5530000000	56
54.5830000000	53
54.6130000000	55
54.6430000000	41
54.6730000000	49
54.7030000000	50
54.7330000000	58
54.7630000000	58
54.7930000000	66
54.8230000000	56
54.8530000000	65
54.8830000000	86
54.9130000000	91
54.9430000000	94
54.9730000000	140
55.0030000000	115
55.0330000000	99
55.0630000000	113
55.0930000000	97
55.1230000000	82
55.1530000000	77
55.1830000000	74
55.2130000000	59
55.2430000000	71
55.2730000000	54
55.3030000000	76
55.3330000000	76
55.3630000000	80
55.3930000000	105
55.4230000000	112
55.4530000000	132
55.4830000000	137
55.5130000000	124
55.5430000000	112
55.5730000000	99
55.6030000000	89
55.6330000000	80
55.6630000000	76
55.6930000000	56
55.7230000000	71
55.7530000000	66
55.7830000000	57
55.8130000000	52
55.8430000000	44
55.8730000000	49
55.9030000000	43
55.9330000000	45
55.9630000000	51
55.9930000000	56
56.0230000000	52
56.0530000000	53
56.0830000000	45
56.1130000000	56
56.1430000000	47
56.1730000000	40
56.2030000000	43
56.2330000000	48
56.2630000000	37
56.2930000000	53
56.3230000000	53
56.3530000000	42
56.3830000000	45
56.4130000000	42
56.4430000000	42
56.4730000000	41
56.5030000000	45
56.5330000000	40
56.5630000000	43
56.5930000000	49
56.6230000000	47
56.6530000000	53
56.6830000000	50
56.7130000000	49
56.7430000000	42
56.7730000000	43
56.8030000000	39
56.8330000000	52
56.8630000000	54
56.8930000000	57
56.9230000000	46
56.9530000000	49
56.9830000000	46
57.0130000000	53
57.0430000000	46
57.0730000000	56
57.1030000000	49
57.1330000000	52
57.1630000000	52
57.1930000000	44
57.2230000000	52
57.2530000000	52
57.2830000000	49
57.3130000000	52
57.3430000000	42
57.3730000000	49
57.4030000000	42
57.4330000000	48
57.4630000000	39
57.4930000000	47
57.5230000000	52
57.5530000000	46
57.5830000000	46
57.6130000000	46
57.6430000000	54
57.6730000000	49
57.7030000000	53
57.7330000000	49
57.7630000000	43
57.7930000000	39
57.8230000000	42
57.8530000000	52
57.8830000000	46
57.9130000000	42
57.9430000000	43
57.9730000000	43
58.0030000000	39
58.0330000000	61
58.0630000000	39
58.0930000000	41
58.1230000000	46
58.1530000000	48
58.1830000000	61
58.2130000000	54
58.2430000000	55
58.2730000000	53
58.3030000000	40
58.3330000000	56
58.3630000000	38
58.3930000000	52
58.4230000000	47
58.4530000000	38
58.4830000000	49
58.5130000000	45
58.5430000000	36
58.5730000000	52
58.6030000000	40
58.6330000000	35
58.6630000000	37
58.6930000000	54
58.7230000000	50
58.7530000000	51
58.7830000000	41
58.8130000000	42
58.8430000000	36
58.8730000000	40
58.9030000000	61
58.9330000000	37
58.9630000000	37
58.9930000000	54
59.0230000000	38
59.0530000000	40
59.0830000000	44
59.1130000000	43
59.1430000000	43
59.1730000000	41
59.2030000000	39
59.2330000000	51
59.2630000000	47
59.2930000000	39
59.3230000000	41
59.3530000000	46
59.3830000000	43
59.4130000000	49
59.4430000000	47
59.4730000000	45
59.5030000000	49
59.5330000000	69
59.5630000000	57
59.5930000000	42
59.6230000000	58
59.6530000000	44
59.6830000000	53
59.7130000000	43
59.7430000000	49
59.7730000000	45
59.8030000000	55
59.8330000000	44
59.8630000000	60
59.8930000000	52
59.9230000000	48
59.9530000000	45
59.9830000000	42
60.0130000000	48
60.0430000000	68
60.0730000000	56
60.1030000000	84
60.1330000000	99
60.1630000000	104
60.1930000000	118
60.2230000000	137
60.2530000000	139
60.2830000000	130
60.3130000000	101
60.3430000000	111
60.3730000000	92
60.4030000000	76
60.4330000000	83
60.4630000000	50
60.4930000000	55
60.5230000000	55
60.5530000000	48
60.5830000000	64
60.6130000000	45
60.6430000000	41
60.6730000000	41
60.7030000000	41
60.7330000000	34
60.7630000000	33
60.7930000000	41
60.8230000000	43
60.8530000000	32
60.8830000000	46
60.9130000000	45
60.9430000000	37
60.9730000000	40
61.0030000000	38
61.0330000000	48
61.0630000000	44
61.0930000000	39
61.1230000000	46
61.1530000000	50
61.1830000000	52
61.2130000000	61
61.2430000000	53
61.2730000000	54
61.3030000000	71
61.3330000000	55
61.3630000000	53
61.3930000000	66
61.4230000000	80
61.4530000000	96
61.4830000000	104
61.5130000000	100
61.5430000000	125
61.5730000000	118
61.6030000000	114
61.6330000000	92
61.6630000000	92
61.6930000000	79
61.7230000000	69
61.7530000000	78
61.7830000000	57
61.8130000000	55
61.8430000000	62
61.8730000000	44
61.9030000000	60
61.9330000000	37
61.9630000000	55
61.9930000000	49
62.0230000000	40
62.0530000000	48
62.0830000000	40
62.1130000000	39
62.1430000000	38
62.1730000000	46
62.2030000000	46
62.2330000000	56
62.2630000000	42
62.2930000000	40
62.3230000000	39
62.3530000000	46
62.3830000000	57
62.4130000000	53
62.4430000000	32
62.4730000000	45
62.5030000000	40
62.5330000000	47
62.5630000000	46
62.5930000000	41
62.6230000000	50
62.6530000000	43
62.6830000000	48
62.7130000000	36
62.7430000000	52
62.7730000000	52
62.8030000000	45
62.8330000000	41
62.8630000000	33
62.8930000000	37
62.9230000000	50
62.9530000000	54
62.9830000000	53
63.0130000000	50
63.0430000000	50
63.0730000000	40
63.1030000000	46
63.1330000000	50
63.1630000000	37
63.1930000000	32
63.2230000000	43
63.2530000000	47
63.2830000000	43
63.3130000000	49
63.3430000000	44
63.3730000000	43
63.4030000000	55
63.4330000000	54
63.4630000000	56
63.4930000000	45
63.5230000000	47
63.5530000000	43
63.5830000000	39
63.6130000000	40
63.6430000000	44
63.6730000000	45
63.7030000000	57
63.7330000000	43
63.7630000000	49
63.7930000000	41
63.8230000000	37
63.8530000000	45
63.8830000000	46
63.9130000000	56
63.9430000000	38
63.9730000000	44
64.0030000000	32
64.0330000000	46
64.0630000000	36
64.0930000000	44
64.1230000000	45
64.1530000000	51
64.1830000000	45
64.2130000000	42
64.2430000000	38
64.2730000000	41
64.3030000000	45
64.3330000000	46
64.3630000000	38
64.3930000000	56
64.4230000000	39
64.4530000000	46
64.4830000000	47
64.5130000000	38
64.5430000000	43
64.5730000000	43
64.6030000000	52
64.6330000000	52
64.6630000000	57
64.6930000000	67
64.7230000000	66
64.7530000000	49
64.7830000000	48
64.8130000000	34
64.8430000000	46
64.8730000000	41
64.9030000000	58
64.9330000000	49
64.9630000000	46
64.9930000000	47
65.0230000000	31
65.0530000000	43
65.0830000000	32
65.1130000000	36
65.1430000000	44
65.1730000000	37
65.2030000000	38
65.2330000000	39
65.2630000000	52
65.2930000000	38
65.3230000000	35
65.3530000000	45
65.3830000000	49
65.4130000000	39
65.4430000000	29
65.4730000000	50
65.5030000000	49
65.5330000000	38
65.5630000000	52
65.5930000000	45
65.6230000000	51
65.6530000000	44
65.6830000000	43
65.7130000000	40
65.7430000000	49
65.7730000000	42
65.8030000000	41
65.8330000000	51
65.8630000000	37
65.8930000000	55
65.9230000000	40
65.9530000000	56
65.9830000000	48
66.0130000000	59
66.0430000000	60
66.0730000000	62
66.1030000000	69
66.1330000000	115
66.1630000000	133
66.1930000000	157
66.2230000000	176
66.2530000000	178
66.2830000000	161
66.3130000000	112
66.3430000000	113
66.3730000000	131
66.4030000000	109
66.4330000000	90
66.4630000000	64
66.4930000000	61
66.5230000000	64
66.5530000000	53
66.5830000000	50
66.6130000000	55
66.6430000000	56
66.6730000000	65
66.7030000000	49
66.7330000000	50
66.7630000000	47
66.7930000000	56
66.8230000000	41
66.8530000000	53
66.8830000000	47
66.9130000000	49
66.9430000000	40
66.9730000000	44
67.0030000000	35
67.0330000000	36
67.0630000000	42
67.0930000000	55
67.1230000000	46
67.1530000000	38
67.1830000000	31
67.2130000000	32
67.2430000000	46
67.2730000000	37
67.3030000000	50
67.3330000000	37
67.3630000000	32
67.3930000000	49
67.4230000000	40
67.4530000000	43
67.4830000000	45
67.5130000000	39
67.5430000000	39
67.5730000000	33
67.6030000000	39
67.6330000000	42
67.6630000000	40
67.6930000000	38
67.7230000000	36
67.7530000000	41
67.7830000000	37
67.8130000000	39
67.8430000000	44
67.8730000000	38
67.9030000000	34
67.9330000000	37
67.9630000000	43
67.9930000000	37
68.0230000000	28
68.0530000000	49
68.0830000000	50
68.1130000000	45
68.1430000000	42
68.1730000000	34
68.2030000000	30
68.2330000000	42
68.2630000000	41
68.2930000000	39
68.3230000000	49
68.3530000000	40
68.3830000000	47
68.4130000000	36
68.4430000000	35
68.4730000000	41
68.5030000000	41
68.5330000000	30
68.5630000000	34
68.5930000000	42
68.6230000000	40
68.6530000000	50
68.6830000000	36
68.7130000000	42
68.7430000000	46
68.7730000000	37
68.8030000000	37
68.8330000000	46
68.8630000000	32
68.8930000000	44
68.9230000000	38
68.9530000000	32
68.9830000000	41
69.0130000000	43
69.0430000000	43
69.0730000000	40
69.1030000000	36
69.1330000000	37
69.1630000000	55
69.1930000000	49
69.2230000000	53
69.2530000000	55
69.2830000000	53
69.3130000000	49
69.3430000000	41
69.3730000000	46
69.4030000000	46
69.4330000000	48
69.4630000000	35
69.4930000000	45
69.5230000000	50
69.5530000000	38
69.5830000000	47
69.6130000000	53
69.6430000000	50
69.6730000000	46
69.7030000000	46
69.7330000000	45
69.7630000000	44
69.7930000000	43
69.8230000000	47
69.8530000000	47
69.8830000000	35
69.9130000000	43
69.9430000000	39
69.9730000000	31
70.0030000000	44
70.0330000000	45
70.0630000000	47
70.0930000000	34
70.1230000000	45
70.1530000000	47
70.1830000000	35
70.2130000000	42
70.2430000000	40
70.2730000000	36
70.3030000000	41
70.3330000000	48
70.3630000000	40
70.3930000000	28
70.4230000000	41
70.4530000000	43
70.4830000000	38
70.5130000000	40
70.5430000000	31
70.5730000000	45
70.6030000000	37
70.6330000000	43
70.6630000000	38
70.6930000000	37
70.7230000000	36
70.7530000000	38
70.7830000000	34
70.8130000000	43
70.8430000000	43
70.8730000000	50
70.9030000000	42
70.9330000000	38
70.9630000000	46
70.9930000000	38
71.0230000000	35
71.0530000000	40
71.0830000000	32
71.1130000000	34
71.1430000000	44
71.1730000000	51
71.2030000000	45
71.2330000000	42
71.2630000000	41
71.2930000000	49
71.3230000000	52
71.3530000000	46
71.3830000000	30
71.4130000000	47
71.4430000000	53
71.4730000000	37
71.5030000000	39
71.5330000000	39
71.5630000000	40
71.5930000000	42
71.6230000000	42
71.6530000000	40
71.6830000000	38
71.7130000000	30
71.7430000000	44
71.7730000000	54
71.8030000000	43
71.8330000000	48
71.8630000000	50
71.8930000000	54
71.9230000000	51
71.9530000000	56
71.9830000000	40
72.0130000000	46
72.0430000000	54
72.0730000000	53
72.1030000000	45
72.1330000000	67
72.1630000000	66
72.1930000000	68
72.2230000000	78
72.2530000000	69
72.2830000000	104
72.3130000000	104
72.3430000000	93
72.3730000000	81
72.4030000000	77
72.4330000000	70
72.4630000000	93
72.4930000000	87
72.5230000000	74
72.5530000000	72
72.5830000000	76
72.6130000000	55
72.6430000000	65
72.6730000000	64
72.7030000000	59
72.7330000000	95
72.7630000000	109
72.7930000000	117
72.8230000000	138
72.8530000000	161
72.8830000000	179
72.9130000000	154
72.9430000000	125
72.9730000000	129
73.0030000000	119
73.0330000000	114
73.0630000000	117
73.0930000000	86
73.1230000000	74
73.1530000000	91
73.1830000000	68
73.2130000000	60
73.2430000000	58
73.2730000000	60
73.3030000000	52
73.3330000000	54
73.3630000000	47
73.3930000000	51
73.4230000000	47
73.4530000000	50
73.4830000000	48
73.5130000000	54
73.5430000000	41
73.5730000000	38
73.6030000000	48
73.6330000000	37
73.6630000000	35
73.6930000000	39
73.7230000000	36
73.7530000000	43
73.7830000000	43
73.8130000000	24
73.8430000000	40
73.8730000000	48
73.9030000000	49
73.9330000000	50
73.9630000000	41
73.9930000000	36
74.0230000000	54
74.0530000000	49
74.0830000000	48
74.1130000000	39
74.1430000000	40
74.1730000000	44
74.2030000000	44
74.2330000000	55
74.2630000000	47
74.2930000000	46
74.3230000000	55
74.3530000000	41
74.3830000000	35
74.4130000000	42
74.4430000000	38
74.4730000000	41
74.5030000000	36
74.5330000000	34
74.5630000000	34
74.5930000000	46
74.6230000000	40
74.6530000000	43
74.6830000000	61
74.7130000000	59
74.7430000000	48
74.7730000000	55
74.8030000000	53
74.8330000000	56
74.8630000000	53
74.8930000000	44
74.9230000000	51
74.9530000000	48
74.9830000000	67
75.0130000000	35
75.0430000000	53
75.0730000000	51
75.1030000000	46
75.1330000000	54
75.1630000000	40
75.1930000000	31
75.2230000000	60
75.2530000000	52
75.2830000000	43
75.3130000000	47
75.3430000000	52
75.3730000000	44
75.4030000000	33
75.4330000000	36
75.4630000000	46
75.4930000000	39
75.5230000000	43
75.5530000000	32
75.5830000000	49
75.6130000000	41
75.6430000000	43
75.6730000000	41
75.7030000000	41
75.7330000000	41
75.7630000000	39
75.7930000000	44
75.8230000000	37
75.8530000000	43
75.8830000000	39
75.9130000000	36
75.9430000000	24
75.9730000000	44
76.0030000000	48
76.0330000000	52
76.0630000000	45
76.0930000000	32
76.1230000000	39
76.1530000000	47
76.1830000000	38
76.2130000000	38
76.2430000000	42
76.2730000000	27
76.3030000000	34
76.3330000000	32
76.3630000000	37
76.3930000000	34
76.4230000000	42
76.4530000000	39
76.4830000000	35
76.5130000000	44
76.5430000000	37
76.5730000000	31
76.6030000000	31
76.6330000000	34
76.6630000000	34
76.6930000000	46
76.7230000000	30
76.7530000000	42
76.7830000000	33
76.8130000000	33
76.8430000000	45
76.8730000000	34
76.9030000000	40
76.9330000000	31
76.9630000000	32
76.9930000000	31
77.0230000000	43
77.0530000000	40
77.0830000000	34
77.1130000000	44
77.1430000000	39
77.1730000000	31
77.2030000000	53
77.2330000000	27
77.2630000000	42
77.2930000000	34
77.3230000000	47
77.3530000000	58
77.3830000000	54
77.4130000000	57
77.4430000000	53
77.4730000000	63
77.5030000000	72
77.5330000000	63
77.5630000000	78
77.5930000000	74
77.6230000000	68
77.6530000000	66
77.6830000000	49
77.7130000000	64
77.7430000000	63
77.7730000000	52
77.8030000000	52
77.8330000000	53
77.8630000000	56
77.8930000000	49
77.9230000000	57
77.9530000000	57
77.9830000000	43
78.0130000000	35
78.0430000000	44
78.0730000000	38
78.1030000000	47
78.1330000000	50
78.1630000000	47
78.1930000000	42
78.2230000000	41
78.2530000000	32
78.2830000000	34
78.3130000000	31
78.3430000000	34
78.3730000000	37
78.4030000000	35
78.4330000000	44
78.4630000000	43
78.4930000000	24
78.5230000000	23
78.5530000000	38
78.5830000000	38
78.6130000000	52
78.6430000000	51
78.6730000000	41
78.7030000000	44
78.7330000000	39
78.7630000000	58
78.7930000000	49
78.8230000000	45
78.8530000000	32
78.8830000000	49
78.9130000000	46
78.9430000000	48
78.9730000000	45
79.0030000000	49
79.0330000000	39
79.0630000000	38
79.0930000000	40
79.1230000000	26
79.1530000000	32
79.1830000000	50
79.2130000000	43
79.2430000000	35
79.2730000000	37
79.3030000000	31
79.3330000000	38
79.3630000000	39
79.3930000000	42
79.4230000000	44
79.4530000000	48
79.4830000000	27
79.5130000000	41
79.5430000000	38
79.5730000000	39
79.6030000000	44
79.6330000000	34
79.6630000000	47
79.6930000000	45
79.7230000000	47
79.7530000000	38
79.7830000000	44
79.8130000000	37
79.8430000000	43
79.8730000000	45
79.9030000000	46
79.9330000000	51
79.9630000000	55
79.9930000000	46
80.0230000000	44
80.0530000000	44
80.0830000000	53
80.1130000000	41
80.1430000000	49
80.1730000000	28
80.2030000000	34
80.2330000000	39
80.2630000000	42
80.2930000000	42
80.3230000000	30
80.3530000000	40
80.3830000000	43
80.4130000000	45
80.4430000000	45
80.4730000000	41
80.5030000000	56
80.5330000000	56
80.5630000000	51
80.5930000000	58
80.6230000000	39
80.6530000000	42
80.6830000000	37
80.7130000000	46
80.7430000000	48
80.7730000000	52
80.8030000000	49
80.8330000000	54
80.8630000000	34
80.8930000000	41
80.9230000000	37
80.9530000000	30
80.9830000000	39
81.0130000000	39
81.0430000000	46
81.0730000000	32
81.1030000000	32
81.1330000000	39
81.1630000000	42
81.1930000000	42
81.2230000000	39
81.2530000000	42
81.2830000000	51
81.3130000000	48
81.3430000000	46
81.3730000000	48
81.4030000000	43
81.4330000000	44
81.4630000000	40
81.4930000000	41
81.5230000000	37
81.5530000000	43
81.5830000000	38
81.6130000000	42
81.6430000000	37
81.6730000000	39
81.7030000000	32
81.7330000000	23
81.7630000000	35
81.7930000000	38
81.8230000000	41
81.8530000000	41
81.8830000000	33
81.9130000000	32
81.9430000000	28
81.9730000000	36
82.0030000000	41
82.0330000000	40
82.0630000000	33
82.0930000000	32
82.1230000000	38
82.1530000000	46
82.1830000000	38
82.2130000000	39
82.2430000000	41
82.2730000000	34
82.3030000000	39
82.3330000000	37
82.3630000000	27
82.3930000000	31
82.4230000000	45
82.4530000000	45
82.4830000000	36
82.5130000000	29
82.5430000000	26
82.5730000000	42
82.6030000000	43
82.6330000000	27
82.6630000000	42
82.6930000000	43
82.7230000000	35
82.7530000000	33
82.7830000000	37
82.8130000000	29
82.8430000000	37
82.8730000000	47
82.9030000000	47
82.9330000000	33
82.9630000000	43
82.9930000000	38
83.0230000000	46
83.0530000000	42
83.0830000000	44
83.1130000000	41
83.1430000000	42
83.1730000000	47
83.2030000000	55
83.2330000000	65
83.2630000000	64
83.2930000000	52
83.3230000000	52
83.3530000000	39
83.3830000000	54
83.4130000000	45
83.4430000000	54
83.4730000000	53
83.5030000000	52
83.5330000000	48
83.5630000000	39
83.5930000000	49
83.6230000000	37
83.6530000000	50
83.6830000000	35
83.7130000000	35
83.7430000000	29
83.7730000000	35
83.8030000000	50
83.8330000000	50
83.8630000000	38
83.8930000000	44
83.9230000000	32
83.9530000000	32
83.9830000000	39
84.0130000000	33
84.0430000000	42
84.0730000000	24
84.1030000000	45
84.1330000000	39
84.1630000000	38
84.1930000000	36
84.2230000000	29
84.2530000000	43
84.2830000000	43
84.3130000000	35
84.3430000000	34
84.3730000000	27
84.4030000000	29
84.4330000000	35
84.4630000000	30
84.4930000000	35
84.5230000000	28
84.5530000000	47
84.5830000000	39
84.6130000000	39
84.6430000000	41
84.6730000000	32
84.7030000000	29
84.7330000000	39
84.7630000000	33
84.7930000000	31
84.8230000000	41
84.8530000000	40
84.8830000000	44
84.9130000000	44
84.9430000000	32
84.9730000000	42
85.0030000000	35
85.0330000000	32
85.0630000000	41
85.0930000000	39
85.1230000000	35
85.1530000000	44
85.1830000000	29
85.2130000000	41
85.2430000000	43
85.2730000000	37
85.3030000000	35
85.3330000000	39
85.3630000000	43
85.3930000000	35
85.4230000000	35
85.4530000000	43
85.4830000000	50
85.5130000000	55
85.5430000000	43
85.5730000000	42
85.6030000000	35
85.6330000000	50
85.6630000000	46
85.6930000000	47
85.7230000000	37
85.7530000000	45
85.7830000000	50
85.8130000000	44
85.8430000000	49
85.8730000000	46
85.9030000000	31
85.9330000000	49
85.9630000000	48
85.9930000000	41
86.0230000000	35
86.0530000000	36
86.0830000000	28
86.1130000000	29
86.1430000000	41
86.1730000000	37
86.2030000000	34
86.2330000000	36
86.2630000000	42
86.2930000000	36
86.3230000000	43
86.3530000000	48
86.3830000000	38
86.4130000000	30
86.4430000000	44
86.4730000000	44
86.5030000000	42
86.5330000000	43
86.5630000000	47
86.5930000000	33
86.6230000000	31
86.6530000000	34
86.6830000000	43
86.7130000000	41
86.7430000000	42
86.7730000000	42
86.8030000000	46
86.8330000000	48
86.8630000000	47
86.8930000000	47
86.9230000000	45
86.9530000000	45
86.9830000000	39
87.0130000000	32
87.0430000000	32
87.0730000000	35
87.1030000000	31
87.1330000000	35
87.1630000000	37
87.1930000000	27
87.2230000000	33
87.2530000000	42
87.2830000000	37
87.3130000000	36
87.3430000000	36
87.3730000000	35
87.4030000000	39
87.4330000000	45
87.4630000000	37
87.4930000000	39
87.5230000000	43
87.5530000000	36
87.5830000000	39
87.6130000000	55
87.6430000000	43
87.6730000000	46
87.7030000000	42
87.7330000000	40
87.7630000000	44
87.7930000000	33
87.8230000000	35
87.8530000000	37
87.8830000000	46
87.9130000000	46
87.9430000000	39
87.9730000000	36
88.0030000000	32
88.0330000000	39
88.0630000000	39
88.0930000000	38
88.1230000000	48
88.1530000000	41
88.1830000000	43
88.2130000000	49
88.2430000000	53
88.2730000000	45
88.3030000000	47
88.3330000000	48
88.3630000000	45
88.3930000000	43
88.4230000000	46
88.4530000000	42
88.4830000000	52
88.5130000000	44
88.5430000000	38
88.5730000000	44
88.6030000000	48
88.6330000000	34
88.6630000000	36
88.6930000000	53
88.7230000000	36
88.7530000000	47
88.7830000000	39
88.8130000000	44
88.8430000000	33
88.8730000000	41
88.9030000000	30
88.9330000000	33
88.9630000000	33
88.9930000000	43
89.0230000000	40
89.0530000000	46
89.0830000000	53
89.1130000000	29
89.1430000000	35
89.1730000000	46
89.2030000000	32
89.2330000000	38
89.2630000000	42
89.2930000000	35
89.3230000000	43
89.3530000000	46
89.3830000000	50
89.4130000000	48
89.4430000000	41
89.4730000000	58
89.5030000000	55
89.5330000000	58
89.5630000000	49
89.5930000000	48
89.6230000000	49
89.6530000000	49
89.6830000000	46
89.7130000000	42
89.7430000000	48
89.7730000000	45
89.8030000000	41
89.8330000000	44
89.8630000000	40
89.8930000000	40
89.9230000000	44
89.9530000000	42
89.9830000000	36
90.0130000000	32
90.0430000000	31
90.0730000000	45
90.1030000000	37
90.1330000000	41
90.1630000000	35
90.1930000000	34
90.2230000000	52
90.2530000000	43
90.2830000000	44
90.3130000000	53
90.3430000000	58
90.3730000000	36
90.4030000000	54
90.4330000000	43
90.4630000000	46
90.4930000000	34
90.5230000000	43
90.5530000000	57
90.5830000000	28
90.6130000000	43
90.6430000000	43
90.6730000000	41
90.7030000000	39
90.7330000000	44
90.7630000000	35
90.7930000000	44
90.8230000000	38
90.8530000000	38
90.8830000000	33
90.9130000000	30
90.9430000000	41
90.9730000000	44
91.0030000000	43
91.0330000000	27
91.0630000000	52
91.0930000000	40
91.1230000000	36
91.1530000000	45
91.1830000000	27
91.2130000000	33
91.2430000000	32
91.2730000000	40
91.3030000000	34
91.3330000000	37
91.3630000000	40
91.3930000000	38
91.4230000000	47
91.4530000000	34
91.4830000000	30
91.5130000000	32
91.5430000000	33
91.5730000000	38
91.6030000000	37
91.6330000000	37
91.6630000000	41
91.6930000000	48
91.7230000000	49
91.7530000000	36
91.7830000000	39
91.8130000000	37
91.8430000000	50
91.8730000000	40
91.9030000000	34
91.9330000000	30
91.9630000000	32
91.9930000000	38
92.0230000000	50
92.0530000000	29
92.0830000000	42
92.1130000000	42
92.1430000000	39
92.1730000000	40
92.2030000000	32
92.2330000000	35
92.2630000000	32
92.2930000000	42
92.3230000000	37
92.3530000000	33
92.3830000000	41
92.4130000000	27
92.4430000000	43
92.4730000000	46
92.5030000000	35
92.5330000000	36
92.5630000000	30
92.5930000000	28
92.6230000000	49
92.6530000000	26
92.6830000000	45
92.7130000000	42
92.7430000000	47
92.7730000000	38
92.8030000000	39
92.8330000000	36
92.8630000000	37
92.8930000000	35
92.9230000000	37
92.9530000000	37
92.9830000000	36
93.0130000000	36
93.0430000000	37
93.0730000000	39
93.1030000000	35
93.1330000000	35
93.1630000000	32
93.1930000000	34
93.2230000000	28
93.2530000000	32
93.2830000000	48
93.3130000000	32
93.3430000000	36
93.3730000000	46
93.4030000000	40
93.4330000000	34
93.4630000000	41
93.4930000000	32
93.5230000000	42
93.5530000000	35
93.5830000000	47
93.6130000000	42
93.6430000000	51
93.6730000000	35
93.7030000000	47
93.7330000000	47
93.7630000000	47
93.7930000000	35
93.8230000000	40
93.8530000000	35
93.8830000000	42
93.9130000000	45
93.9430000000	34
93.9730000000	37
94.0030000000	37
94.0330000000	37
94.0630000000	37
94.0930000000	38
94.1230000000	40
94.1530000000	40
94.1830000000	37
94.2130000000	37
94.2430000000	28
94.2730000000	41
94.3030000000	37
94.3330000000	40
94.3630000000	34
94.3930000000	37
94.4230000000	28
94.4530000000	29
94.4830000000	30
94.5130000000	36
94.5430000000	39
94.5730000000	39
94.6030000000	34
94.6330000000	33
94.6630000000	38
94.6930000000	36
94.7230000000	34
94.7530000000	37
94.7830000000	35
94.8130000000	34
94.8430000000	32
94.8730000000	26
94.9030000000	40
94.9330000000	38
94.9630000000	32
94.9930000000	32
95.0230000000	35
95.0530000000	48
95.0830000000	43
95.1130000000	40
95.1430000000	27
95.1730000000	41
95.2030000000	38
95.2330000000	35
95.2630000000	44
95.2930000000	48
95.3230000000	26
95.3530000000	28
95.3830000000	36
95.4130000000	28
95.4430000000	36
95.4730000000	39
95.5030000000	43
95.5330000000	34
95.5630000000	36
95.5930000000	31
95.6230000000	43
95.6530000000	40
95.6830000000	24
95.7130000000	38
95.7430000000	37
95.7730000000	28
95.8030000000	46
95.8330000000	41
95.8630000000	31
95.8930000000	42
95.9230000000	40
95.9530000000	39
95.9830000000	44
96.0130000000	40
96.0430000000	39
96.0730000000	44
96.1030000000	38
96.1330000000	27
96.1630000000	37
96.1930000000	39
96.2230000000	41
96.2530000000	37
96.2830000000	31
96.3130000000	38
96.3430000000	42
96.3730000000	50
96.4030000000	35
96.4330000000	29
96.4630000000	31
96.4930000000	45
96.5230000000	50
96.5530000000	46
96.5830000000	39
96.6130000000	34
96.6430000000	41
96.6730000000	39
96.7030000000	31
96.7330000000	37
96.7630000000	37
96.7930000000	49
96.8230000000	46
96.8530000000	38
96.8830000000	31
96.9130000000	46
96.9430000000	47
96.9730000000	39
97.0030000000	30
97.0330000000	39
97.0630000000	41
97.0930000000	44
97.1230000000	31
97.1530000000	36
97.1830000000	39
97.2130000000	43
97.2430000000	37
97.2730000000	32
97.3030000000	33
97.3330000000	44
97.3630000000	38
97.3930000000	35
97.4230000000	42
97.4530000000	36
97.4830000000	31
97.5130000000	39
97.5430000000	39
97.5730000000	32
97.6030000000	39
97.6330000000	38
97.6630000000	43
97.6930000000	42
97.7230000000	37
97.7530000000	41
97.7830000000	35
97.8130000000	46
97.8430000000	41
97.8730000000	50
97.9030000000	32
97.9330000000	40
97.9630000000	38
97.9930000000	34
98.0230000000	33
98.0530000000	33
98.0830000000	35
98.1130000000	41
98.1430000000	36
98.1730000000	36
98.2030000000	35
98.2330000000	34
98.2630000000	26
98.2930000000	34
98.3230000000	59
98.3530000000	39
98.3830000000	32
98.4130000000	43
98.4430000000	36
98.4730000000	38
98.5030000000	43
98.5330000000	32
98.5630000000	35
98.5930000000	48
98.6230000000	38
98.6530000000	34
98.6830000000	32
98.7130000000	28
98.7430000000	38
98.7730000000	37
98.8030000000	28
98.8330000000	30
98.8630000000	34
98.8930000000	44
98.9230000000	39
98.9530000000	40
98.9830000000	48
99.0130000000	44
99.0430000000	38
99.0730000000	44
99.1030000000	42
99.1330000000	40
99.1630000000	47
99.1930000000	36
99.2230000000	43
99.2530000000	45
99.2830000000	28
99.3130000000	33
99.3430000000	21
99.3730000000	49
99.4030000000	39
99.4330000000	41
99.4630000000	39
99.4930000000	39
99.5230000000	41
99.5530000000	40
99.5830000000	34
99.6130000000	32
99.6430000000	43
99.6730000000	44
99.7030000000	28
99.7330000000	32
99.7630000000	39
99.7930000000	38
99.8230000000	35
99.8530000000	37
99.8830000000	37
99.9130000000	31
99.9430000000	38
99.9730000000	32
100.0030000000	33
100.0330000000	37
100.0630000000	33
100.0930000000	30
100.1230000000	36
100.1530000000	36
100.1830000000	37
100.2130000000	43
100.2430000000	39
100.2730000000	35
100.3030000000	36
100.3330000000	31
100.3630000000	27
100.3930000000	32
100.4230000000	33
100.4530000000	22
100.4830000000	24
100.5130000000	31
100.5430000000	34
100.5730000000	46
100.6030000000	43
100.6330000000	37
100.6630000000	29
100.6930000000	26
100.7230000000	33
100.7530000000	31
100.7830000000	40
100.8130000000	31
100.8430000000	26
100.8730000000	35
100.9030000000	29
100.9330000000	34
100.9630000000	30
100.9930000000	35
101.0230000000	48
101.0530000000	43
101.0830000000	39
101.1130000000	35
101.1430000000	41
101.1730000000	37
101.2030000000	36
101.2330000000	21
101.2630000000	40
101.2930000000	34
101.3230000000	29
101.3530000000	30
101.3830000000	36
101.4130000000	37
101.4430000000	28
101.4730000000	33
101.5030000000	40
101.5330000000	35
101.5630000000	30
101.5930000000	40
101.6230000000	48
101.6530000000	39
101.6830000000	33
101.7130000000	38
101.7430000000	29
101.7730000000	40
101.8030000000	43
101.8330000000	45
101.8630000000	35
101.8930000000	27
101.9230000000	32
101.9530000000	40
101.9830000000	43
102.0130000000	34
102.0430000000	34
102.0730000000	42
102.1030000000	23
102.1330000000	35
102.1630000000	32
102.1930000000	36
102.2230000000	33
102.2530000000	40
102.2830000000	26
102.3130000000	22
102.3430000000	36
102.3730000000	43
102.4030000000	37
102.4330000000	43
102.4630000000	49
102.4930000000	27
102.5230000000	34
102.5530000000	33
102.5830000000	38
102.6130000000	34
102.6430000000	41
102.6730000000	30
102.7030000000	28
102.7330000000	28
102.7630000000	38
102.7930000000	32
102.8230000000	36
102.8530000000	35
102.8830000000	35
102.9130000000	44
102.9430000000	42
102.9730000000	44
103.0030000000	52
103.0330000000	42
103.0630000000	37
103.0930000000	32
103.1230000000	38
103.1530000000	42
103.1830000000	33
103.2130000000	34
103.2430000000	33
103.2730000000	38
103.3030000000	47
103.3330000000	34
103.3630000000	42
103.3930000000	33
103.4230000000	32
103.4530000000	37
103.4830000000	42
103.5130000000	32
103.5430000000	33
103.5730000000	30
103.6030000000	36
103.6330000000	40
103.6630000000	34
103.6930000000	40
103.7230000000	46
103.7530000000	34
103.7830000000	35
103.8130000000	30
103.8430000000	30
103.8730000000	45
103.9030000000	42
103.9330000000	42
103.9630000000	37
103.9930000000	41
104.0230000000	34
104.0530000000	36
104.0830000000	43
104.1130000000	46
104.1430000000	45
104.1730000000	39
104.2030000000	37
104.2330000000	33
104.2630000000	34
104.2930000000	41
104.3230000000	36
104.3530000000	52
104.3830000000	36
104.4130000000	49
104.4430000000	46
104.4730000000	40
104.5030000000	40
104.5330000000	46
104.5630000000	47
104.5930000000	54
104.6230000000	39
104.6530000000	48
104.6830000000	42
104.7130000000	34
104.7430000000	50
104.7730000000	46
104.8030000000	50
104.8330000000	46
104.8630000000	46
104.8930000000	34
104.9230000000	29
104.9530000000	43
104.9830000000	40
105.0130000000	40
105.0430000000	37
105.0730000000	34
105.1030000000	41
105.1330000000	38
105.1630000000	37
105.1930000000	45
105.2230000000	40
105.2530000000	34
105.2830000000	35
105.3130000000	24
105.3430000000	39
105.3730000000	48
105.4030000000	50
105.4330000000	45
105.4630000000	39
105.4930000000	41
105.5230000000	37
105.5530000000	33
105.5830000000	35
105.6130000000	29
105.6430000000	38
105.6730000000	41
105.7030000000	41
105.7330000000	38
105.7630000000	39
105.7930000000	32
105.8230000000	42
105.8530000000	46
105.8830000000	28
105.9130000000	23
105.9430000000	23
105.9730000000	36
106.0030000000	42
106.0330000000	28
106.0630000000	46
106.0930000000	40
106.1230000000	31
106.1530000000	42
106.1830000000	27
106.2130000000	38
106.2430000000	41
106.2730000000	44
106.3030000000	36
106.3330000000	41
106.3630000000	29
106.3930000000	29
106.4230000000	36
106.4530000000	38
106.4830000000	30
106.5130000000	41
106.5430000000	39
106.5730000000	32
106.6030000000	41
106.6330000000	50
106.6630000000	53
106.6930000000	40
106.7230000000	48
106.7530000000	44
106.7830000000	43
106.8130000000	36
106.8430000000	32
106.8730000000	41
106.9030000000	42
106.9330000000	46
106.9630000000	41
106.9930000000	36
107.0230000000	34
107.0530000000	34
107.0830000000	42
107.1130000000	43
107.1430000000	39
107.1730000000	32
107.2030000000	36
107.2330000000	33
107.2630000000	36
107.2930000000	39
107.3230000000	41
107.3530000000	41
107.3830000000	41
107.4130000000	36
107.4430000000	41
107.4730000000	38
107.5030000000	35
107.5330000000	34
107.5630000000	42
107.5930000000	36
107.6230000000	42
107.6530000000	34
107.6830000000	39
107.7130000000	42
107.7430000000	36
107.7730000000	39
107.8030000000	44
107.8330000000	45
107.8630000000	44
107.8930000000	38
107.9230000000	34
107.9530000000	37
107.9830000000	44
108.0130000000	45
108.0430000000	31
108.0730000000	20
108.1030000000	44
108.1330000000	37
108.1630000000	35
108.1930000000	40
108.2230000000	39
108.2530000000	39
108.2830000000	35
108.3130000000	27
108.3430000000	28
108.3730000000	25
108.4030000000	33
108.4330000000	44
108.4630000000	33
108.4930000000	34
108.5230000000	45
108.5530000000	36
108.5830000000	26
108.6130000000	36
108.6430000000	35
108.6730000000	27
108.7030000000	38
108.7330000000	35
108.7630000000	36
108.7930000000	31
108.8230000000	32
108.8530000000	38
108.8830000000	44
108.9130000000	27
108.9430000000	30
108.9730000000	35
109.0030000000	28
109.0330000000	40
109.0630000000	33
109.0930000000	36
109.1230000000	38
109.1530000000	27
109.1830000000	34
109.2130000000	41
109.2430000000	26
109.2730000000	35
109.3030000000	37
109.3330000000	40
109.3630000000	45
109.3930000000	33
109.4230000000	29
109.4530000000	43
109.4830000000	46
109.5130000000	45
109.5430000000	46
109.5730000000	39
109.6030000000	33
109.6330000000	43
109.6630000000	39
109.6930000000	45
109.7230000000	41
109.7530000000	45
109.7830000000	33
109.8130000000	33
109.8430000000	37
109.8730000000	40
109.9030000000	40
109.9330000000	38
109.9630000000	53
109.9930000000	35
110.0230000000	33
110.0530000000	43
110.0830000000	39
110.1130000000	39
110.1430000000	40
110.1730000000	51
110.2030000000	59
110.2330000000	41
110.2630000000	48
110.2930000000	33
110.3230000000	39
110.3530000000	37
110.3830000000	50
110.4130000000	34
110.4430000000	38
110.4730000000	42
110.5030000000	42
110.5330000000	41
110.5630000000	50
110.5930000000	39
110.6230000000	44
110.6530000000	48
110.6830000000	46
110.7130000000	35
110.7430000000	36
110.7730000000	38
110.8030000000	38
110.8330000000	38
110.8630000000	41
110.8930000000	40
110.9230000000	41
110.9530000000	37
110.9830000000	41
111.0130000000	51
111.0430000000	43
111.0730000000	41
111.1030000000	42
111.1330000000	43
111.1630000000	43
111.1930000000	39
111.2230000000	42
111.2530000000	38
111.2830000000	42
111.3130000000	52
111.3430000000	52
111.3730000000	52
111.4030000000	43
111.4330000000	59
111.4630000000	48
111.4930000000	53
111.5230000000	39
111.5530000000	36
111.5830000000	43
111.6130000000	44
111.6430000000	49
111.6730000000	44
111.7030000000	49
111.7330000000	52
111.7630000000	39
111.7930000000	43
111.8230000000	44
111.8530000000	49
111.8830000000	33
111.9130000000	42
111.9430000000	40
111.9730000000	32
112.0030000000	38
112.0330000000	53
112.0630000000	37
112.0930000000	31
112.1230000000	36
112.1530000000	41
112.1830000000	36
112.2130000000	33
112.2430000000	49
112.2730000000	40
112.3030000000	40
112.3330000000	43
112.3630000000	40
112.3930000000	39
112.4230000000	40
112.4530000000	42
112.4830000000	35
112.5130000000	37
112.5430000000	38
112.5730000000	46
112.6030000000	38
112.6330000000	39
112.6630000000	41
112.6930000000	40
112.7230000000	42
112.7530000000	44
112.7830000000	42
112.8130000000	40
112.8430000000	45
112.8730000000	51
112.9030000000	51
112.9330000000	56
112.9630000000	61
112.9930000000	74
113.0230000000	77
113.0530000000	78
113.0830000000	59
113.1130000000	48
113.1430000000	46
113.1730000000	54
113.2030000000	53
113.2330000000	41
113.2630000000	69
113.2930000000	57
113.3230000000	55
113.3530000000	62
113.3830000000	63
113.4130000000	53
113.4430000000	43
113.4730000000	51
113.5030000000	58
113.5330000000	49
113.5630000000	46
113.5930000000	49
113.6230000000	36
113.6530000000	47
113.6830000000	39
113.7130000000	39
113.7430000000	39
113.7730000000	46
113.8030000000	41
113.8330000000	37
113.8630000000	35
113.8930000000	41
113.9230000000	50
113.9530000000	41
113.9830000000	41
114.0130000000	37
114.0430000000	40
114.0730000000	52
114.1030000000	66
114.1330000000	51
114.1630000000	41
114.1930000000	39
114.2230000000	39
114.2530000000	42
114.2830000000	42
114.3130000000	39
114.3430000000	45
114.3730000000	54
114.4030000000	36
114.4330000000	40
114.4630000000	1
114.4930000000	1
114.5230000000	1
114.5530000000	1
114.5830000000	1
