0.3130000000	1
0.3430000000	1
0.3730000000	1
0.4030000000	1
0.4330000000	1
0.4630000000	1
0.4930000000	1
0.5230000000	1
0.5530000000	1
0.5830000000	1
0.6130000000	1
0.6430000000	1
0.6730000000	1
0.7030000000	1
0.7330000000	1
0.7630000000	1
0.7930000000	1
0.8230000000	1
0.8530000000	1
0.8830000000	2
0.9130000000	2
0.9430000000	1
0.9730000000	1
1.0030000000	1
1.0330000000	1
1.0630000000	1
1.0930000000	1
1.1230000000	1
1.1530000000	1
1.1830000000	1
1.2130000000	1
1.2430000000	1
1.2730000000	2
1.3030000000	1
1.3330000000	1
1.3630000000	1
1.3930000000	2
1.4230000000	1
1.4530000000	1
1.4830000000	1
1.5130000000	1
1.5430000000	1
1.5730000000	2
1.6030000000	1
1.6330000000	1
1.6630000000	1
1.6930000000	1
1.7230000000	1
1.7530000000	1
1.7830000000	1
1.8130000000	1
1.8430000000	1
1.8730000000	1
1.9030000000	1
1.9330000000	2
1.9630000000	2
1.9930000000	1
2.0230000000	1
2.0530000000	1
2.0830000000	1
2.1130000000	2
2.1430000000	1
2.1730000000	1
2.2030000000	1
2.2330000000	2
2.2630000000	2
2.2930000000	1
2.3230000000	1
2.3530000000	1
2.3830000000	1
2.4130000000	1
2.4430000000	2
2.4730000000	2
2.5030000000	1
2.5330000000	1
2.5630000000	1
2.5930000000	1
2.6230000000	1
2.6530000000	1
2.6830000000	1
2.7130000000	2
2.7430000000	1
2.7730000000	2
2.8030000000	1
2.8330000000	1
2.8630000000	2
2.8930000000	1
2.9230000000	2
2.9530000000	3
2.9830000000	1
3.0130000000	2
3.0430000000	2
3.0730000000	4
3.1030000000	2
3.1330000000	2
3.1630000000	2
3.1930000000	3
3.2230000000	1
3.2530000000	2
3.2830000000	1
3.3130000000	1
3.3430000000	3
3.3730000000	2
3.4030000000	1
3.4330000000	2
3.4630000000	5
3.4930000000	2
3.5230000000	1
3.5530000000	2
3.5830000000	1
3.6130000000	1
3.6430000000	2
3.6730000000	3
3.7030000000	2
3.7330000000	5
3.7630000000	2
3.7930000000	1
3.8230000000	3
3.8530000000	2
3.8830000000	2
3.9130000000	2
3.9430000000	3
3.9730000000	6
4.0030000000	1
4.0330000000	3
4.0630000000	4
4.0930000000	4
4.1230000000	4
4.1530000000	1
4.1830000000	6
4.2130000000	2
4.2430000000	4
4.2730000000	2
4.3030000000	6
4.3330000000	4
4.3630000000	5
4.3930000000	4
4.4230000000	9
4.4530000000	6
4.4830000000	23
4.5130000000	26
4.5430000000	54
4.5730000000	69
4.6030000000	96
4.6330000000	83
4.6630000000	117
4.6930000000	111
4.7230000000	129
4.7530000000	122
4.7830000000	145
4.8130000000	150
4.8430000000	135
4.8730000000	147
4.9030000000	135
4.9330000000	129
4.9630000000	154
4.9930000000	167
5.0230000000	124
5.0530000000	152
5.0830000000	134
5.1130000000	136
5.1430000000	135
5.1730000000	114
5.2030000000	120
5.2330000000	125
5.2630000000	135
5.2930000000	156
5.3230000000	167
5.3530000000	145
5.3830000000	142
5.4130000000	126
5.4430000000	122
5.4730000000	134
5.5030000000	131
5.5330000000	154
5.5630000000	150
5.5930000000	169
5.6230000000	127
5.6530000000	147
5.6830000000	163
5.7130000000	143
5.7430000000	172
5.7730000000	145
5.8030000000	129
5.8330000000	144
5.8630000000	170
5.8930000000	159
5.9230000000	142
5.9530000000	163
5.9830000000	149
6.0130000000	127
6.0430000000	163
6.0730000000	146
6.1030000000	140
6.1330000000	152
6.1630000000	160
6.1930000000	132
6.2230000000	145
6.2530000000	154
6.2830000000	142
6.3130000000	143
6.3430000000	151
6.3730000000	161
6.4030000000	157
6.4330000000	147
6.4630000000	162
6.4930000000	158
6.5230000000	133
6.5530000000	146
6.5830000000	149
6.6130000000	174
6.6430000000	159
6.6730000000	131
6.7030000000	152
6.7330000000	155
6.7630000000	157
6.7930000000	147
6.8230000000	138
6.8530000000	144
6.8830000000	141
6.9130000000	154
6.9430000000	141
6.9730000000	147
7.0030000000	142
7.0330000000	146
7.0630000000	143
7.0930000000	134
7.1230000000	139
7.1530000000	131
7.1830000000	150
7.2130000000	134
7.2430000000	151
7.2730000000	162
7.3030000000	146
7.3330000000	153
7.3630000000	144
7.3930000000	140
7.4230000000	143
7.4530000000	151
7.4830000000	142
7.5130000000	149
7.5430000000	157
7.5730000000	143
7.6030000000	149
7.6330000000	141
7.6630000000	156
7.6930000000	157
7.7230000000	160
7.7530000000	173
7.7830000000	148
7.8130000000	144
7.8430000000	143
7.8730000000	148
7.9030000000	142
7.9330000000	141
7.9630000000	166
7.9930000000	167
8.0230000000	164
8.0530000000	124
8.0830000000	129
8.1130000000	129
8.1430000000	134
8.1730000000	139
8.2030000000	154
8.2330000000	139
8.2630000000	129
8.2930000000	146
8.3230000000	145
8.3530000000	175
8.3830000000	153
8.4130000000	154
8.4430000000	154
8.4730000000	175
8.5030000000	148
8.5330000000	146
8.5630000000	169
8.5930000000	142
8.6230000000	136
8.6530000000	151
8.6830000000	157
8.7130000000	164
8.7430000000	145
8.7730000000	151
8.8030000000	149
8.8330000000	157
8.8630000000	163
8.8930000000	149
8.9230000000	131
8.9530000000	160
8.9830000000	139
9.0130000000	163
9.0430000000	171
9.0730000000	149
9.1030000000	117
9.1330000000	153
9.1630000000	158
9.1930000000	150
9.2230000000	140
9.2530000000	157
9.2830000000	131
9.3130000000	125
9.3430000000	139
9.3730000000	133
9.4030000000	138
9.4330000000	149
9.4630000000	162
9.4930000000	128
9.5230000000	144
9.5530000000	153
9.5830000000	132
9.6130000000	127
9.6430000000	149
9.6730000000	150
9.7030000000	151
9.7330000000	146
9.7630000000	151
9.7930000000	133
9.8230000000	152
9.8530000000	140
9.8830000000	157
9.9130000000	153
9.9430000000	133
9.9730000000	165
10.0030000000	146
10.0330000000	139
10.0630000000	152
10.0930000000	158
10.1230000000	151
10.1530000000	142
10.1830000000	144
10.2130000000	135
10.2430000000	166
10.2730000000	152
10.3030000000	149
10.3330000000	139
10.3630000000	150
10.3930000000	115
10.4230000000	148
10.4530000000	155
10.4830000000	144
10.5130000000	162
10.5430000000	145
10.5730000000	157
10.6030000000	150
10.6330000000	155
10.6630000000	122
10.6930000000	128
10.7230000000	132
10.7530000000	146
10.7830000000	149
10.8130000000	159
10.8430000000	144
10.8730000000	171
10.9030000000	147
10.9330000000	126
10.9630000000	125
10.9930000000	145
11.0230000000	123
11.0530000000	153
11.0830000000	150
11.1130000000	161
11.1430000000	149
11.1730000000	130
11.2030000000	157
11.2330000000	151
11.2630000000	135
11.2930000000	150
11.3230000000	156
11.3530000000	150
11.3830000000	137
11.4130000000	173
11.4430000000	150
11.4730000000	156
11.5030000000	158
11.5330000000	142
11.5630000000	158
11.5930000000	134
11.6230000000	151
11.6530000000	167
11.6830000000	149
11.7130000000	155
11.7430000000	161
11.7730000000	142
11.8030000000	162
11.8330000000	143
11.8630000000	145
11.8930000000	153
11.9230000000	143
11.9530000000	141
11.9830000000	130
12.0130000000	133
12.0430000000	132
12.0730000000	148
12.1030000000	154
12.1330000000	135
12.1630000000	132
12.1930000000	141
12.2230000000	127
12.2530000000	126
12.2830000000	131
12.3130000000	148
12.3430000000	155
12.3730000000	161
12.4030000000	149
12.4330000000	143
12.4630000000	149
12.4930000000	158
12.5230000000	151
12.5530000000	152
12.5830000000	140
12.6130000000	147
12.6430000000	163
12.6730000000	158
12.7030000000	156
12.7330000000	150
12.7630000000	132
12.7930000000	136
12.8230000000	149
12.8530000000	139
12.8830000000	136
12.9130000000	160
12.9430000000	150
12.9730000000	127
13.0030000000	137
13.0330000000	148
13.0630000000	140
13.0930000000	134
13.1230000000	157
13.1530000000	169
13.1830000000	137
13.2130000000	129
13.2430000000	131
13.2730000000	168
13.3030000000	119
13.3330000000	142
13.3630000000	123
13.3930000000	133
13.4230000000	152
13.4530000000	138
13.4830000000	169
13.5130000000	128
13.5430000000	133
13.5730000000	160
13.6030000000	140
13.6330000000	129
13.6630000000	148
13.6930000000	150
13.7230000000	141
13.7530000000	133
13.7830000000	121
13.8130000000	143
13.8430000000	134
13.8730000000	137
13.9030000000	143
13.9330000000	145
13.9630000000	139
13.9930000000	144
14.0230000000	153
14.0530000000	129
14.0830000000	138
14.1130000000	124
14.1430000000	136
14.1730000000	152
14.2030000000	137
14.2330000000	139
14.2630000000	149
14.2930000000	129
14.3230000000	158
14.3530000000	161
14.3830000000	155
14.4130000000	134
14.4430000000	145
14.4730000000	151
14.5030000000	145
14.5330000000	145
14.5630000000	154
14.5930000000	131
14.6230000000	155
14.6530000000	145
14.6830000000	138
14.7130000000	163
14.7430000000	140
14.7730000000	152
14.8030000000	167
14.8330000000	144
14.8630000000	155
14.8930000000	136
14.9230000000	131
14.9530000000	144
14.9830000000	134
15.0130000000	142
15.0430000000	161
15.0730000000	142
15.1030000000	160
15.1330000000	169
15.1630000000	134
15.1930000000	160
15.2230000000	115
15.2530000000	148
15.2830000000	168
15.3130000000	157
15.3430000000	166
15.3730000000	145
15.4030000000	162
15.4330000000	130
15.4630000000	151
15.4930000000	168
15.5230000000	147
15.5530000000	139
15.5830000000	139
15.6130000000	136
15.6430000000	135
15.6730000000	140
15.7030000000	140
15.7330000000	120
15.7630000000	140
15.7930000000	136
15.8230000000	126
15.8530000000	133
15.8830000000	154
15.9130000000	126
15.9430000000	129
15.9730000000	138
16.0030000000	150
16.0330000000	140
16.0630000000	146
16.0930000000	152
16.1230000000	155
16.1530000000	162
16.1830000000	137
16.2130000000	143
16.2430000000	137
16.2730000000	124
16.3030000000	124
16.3330000000	171
16.3630000000	152
16.3930000000	140
16.4230000000	154
16.4530000000	147
16.4830000000	143
16.5130000000	161
16.5430000000	148
16.5730000000	149
16.6030000000	152
16.6330000000	155
16.6630000000	141
16.6930000000	137
16.7230000000	136
16.7530000000	143
16.7830000000	151
16.8130000000	144
16.8430000000	153
16.8730000000	125
16.9030000000	145
16.9330000000	150
16.9630000000	165
16.9930000000	177
17.0230000000	158
17.0530000000	148
17.0830000000	132
17.1130000000	143
17.1430000000	139
17.1730000000	141
17.2030000000	131
17.2330000000	118
17.2630000000	132
17.2930000000	162
17.3230000000	152
17.3530000000	143
17.3830000000	156
17.4130000000	138
17.4430000000	125
17.4730000000	136
17.5030000000	136
17.5330000000	128
17.5630000000	133
17.5930000000	148
17.6230000000	144
17.6530000000	146
17.6830000000	143
17.7130000000	137
17.7430000000	141
17.7730000000	138
17.8030000000	130
17.8330000000	142
17.8630000000	147
17.8930000000	152
17.9230000000	165
17.9530000000	154
17.9830000000	143
18.0130000000	133
18.0430000000	126
18.0730000000	146
18.1030000000	148
18.1330000000	135
18.1630000000	138
18.1930000000	133
18.2230000000	144
18.2530000000	130
18.2830000000	133
18.3130000000	129
18.3430000000	133
18.3730000000	143
18.4030000000	138
18.4330000000	141
18.4630000000	127
18.4930000000	143
18.5230000000	144
18.5530000000	161
18.5830000000	147
18.6130000000	148
18.6430000000	154
18.6730000000	119
18.7030000000	165
18.7330000000	157
18.7630000000	141
18.7930000000	152
18.8230000000	147
18.8530000000	135
18.8830000000	149
18.9130000000	152
18.9430000000	166
18.9730000000	157
19.0030000000	148
19.0330000000	161
19.0630000000	141
19.0930000000	144
19.1230000000	152
19.1530000000	161
19.1830000000	171
19.2130000000	137
19.2430000000	170
19.2730000000	154
19.3030000000	162
19.3330000000	163
19.3630000000	159
19.3930000000	156
19.4230000000	132
19.4530000000	141
19.4830000000	134
19.5130000000	161
19.5430000000	170
19.5730000000	152
19.6030000000	133
19.6330000000	153
19.6630000000	151
19.6930000000	153
19.7230000000	150
19.7530000000	146
19.7830000000	168
19.8130000000	162
19.8430000000	154
19.8730000000	140
19.9030000000	146
19.9330000000	166
19.9630000000	154
19.9930000000	123
20.0230000000	162
20.0530000000	149
20.0830000000	127
20.1130000000	143
20.1430000000	139
20.1730000000	152
20.2030000000	190
20.2330000000	149
20.2630000000	138
20.2930000000	144
20.3230000000	134
20.3530000000	142
20.3830000000	152
20.4130000000	161
20.4430000000	138
20.4730000000	145
20.5030000000	129
20.5330000000	152
20.5630000000	168
20.5930000000	161
20.6230000000	178
20.6530000000	226
20.6830000000	246
20.7130000000	299
20.7430000000	379
20.7730000000	471
20.8030000000	680
20.8330000000	925
20.8630000000	974
20.8930000000	922
20.9230000000	811
20.9530000000	590
20.9830000000	394
21.0130000000	311
21.0430000000	253
21.0730000000	196
21.1030000000	174
21.1330000000	158
21.1630000000	176
21.1930000000	158
21.2230000000	161
21.2530000000	145
21.2830000000	155
21.3130000000	165
21.3430000000	138
21.3730000000	157
21.4030000000	128
21.4330000000	163
21.4630000000	138
21.4930000000	143
21.5230000000	156
21.5530000000	165
21.5830000000	158
21.6130000000	175
21.6430000000	173
21.6730000000	141
21.7030000000	150
21.7330000000	158
21.7630000000	155
21.7930000000	158
21.8230000000	161
21.8530000000	156
21.8830000000	147
21.9130000000	158
21.9430000000	143
21.9730000000	151
22.0030000000	147
22.0330000000	177
22.0630000000	167
22.0930000000	155
22.1230000000	165
22.1530000000	165
22.1830000000	147
22.2130000000	165
22.2430000000	171
22.2730000000	160
22.3030000000	167
22.3330000000	180
22.3630000000	182
22.3930000000	152
22.4230000000	148
22.4530000000	155
22.4830000000	168
22.5130000000	171
22.5430000000	157
22.5730000000	151
22.6030000000	164
22.6330000000	163
22.6630000000	154
22.6930000000	163
22.7230000000	145
22.7530000000	153
22.7830000000	150
22.8130000000	172
22.8430000000	153
22.8730000000	156
22.9030000000	174
22.9330000000	177
22.9630000000	155
22.9930000000	145
23.0230000000	163
23.0530000000	158
23.0830000000	147
23.1130000000	161
23.1430000000	167
23.1730000000	185
23.2030000000	168
23.2330000000	168
23.2630000000	158
23.2930000000	168
23.3230000000	152
23.3530000000	154
23.3830000000	168
23.4130000000	149
23.4430000000	160
23.4730000000	150
23.5030000000	157
23.5330000000	160
23.5630000000	166
23.5930000000	168
23.6230000000	180
23.6530000000	175
23.6830000000	152
23.7130000000	167
23.7430000000	188
23.7730000000	149
23.8030000000	144
23.8330000000	184
23.8630000000	162
23.8930000000	171
23.9230000000	163
23.9530000000	179
23.9830000000	169
24.0130000000	143
24.0430000000	166
24.0730000000	166
24.1030000000	144
24.1330000000	159
24.1630000000	146
24.1930000000	149
24.2230000000	154
24.2530000000	183
24.2830000000	174
24.3130000000	170
24.3430000000	141
24.3730000000	160
24.4030000000	162
24.4330000000	149
24.4630000000	153
24.4930000000	159
24.5230000000	185
24.5530000000	147
24.5830000000	155
24.6130000000	175
24.6430000000	172
24.6730000000	178
24.7030000000	157
24.7330000000	149
24.7630000000	163
24.7930000000	164
24.8230000000	161
24.8530000000	173
24.8830000000	174
24.9130000000	168
24.9430000000	161
24.9730000000	145
25.0030000000	152
25.0330000000	162
25.0630000000	173
25.0930000000	157
25.1230000000	143
25.1530000000	165
25.1830000000	174
25.2130000000	165
25.2430000000	152
25.2730000000	163
25.3030000000	171
25.3330000000	158
25.3630000000	178
25.3930000000	185
25.4230000000	164
25.4530000000	195
25.4830000000	163
25.5130000000	169
25.5430000000	170
25.5730000000	158
25.6030000000	185
25.6330000000	158
25.6630000000	183
25.6930000000	178
25.7230000000	158
25.7530000000	179
25.7830000000	204
25.8130000000	187
25.8430000000	220
25.8730000000	304
25.9030000000	362
25.9330000000	471
25.9630000000	654
25.9930000000	943
26.0230000000	1319
26.0530000000	1606
26.0830000000	1574
26.1130000000	1346
26.1430000000	1052
26.1730000000	742
26.2030000000	523
26.2330000000	364
26.2630000000	244
26.2930000000	226
26.3230000000	205
26.3530000000	185
26.3830000000	178
26.4130000000	165
26.4430000000	159
26.4730000000	137
26.5030000000	165
26.5330000000	161
26.5630000000	160
26.5930000000	164
26.6230000000	135
26.6530000000	148
26.6830000000	156
26.7130000000	162
26.7430000000	164
26.7730000000	154
26.8030000000	151
26.8330000000	144
26.8630000000	144
26.8930000000	159
26.9230000000	152
26.9530000000	159
26.9830000000	156
27.0130000000	140
27.0430000000	150
27.0730000000	135
27.1030000000	138
27.1330000000	154
27.1630000000	149
27.1930000000	155
27.2230000000	150
27.2530000000	155
27.2830000000	153
27.3130000000	166
27.3430000000	125
27.3730000000	140
27.4030000000	132
27.4330000000	150
27.4630000000	141
27.4930000000	166
27.5230000000	162
27.5530000000	127
27.5830000000	132
27.6130000000	133
27.6430000000	162
27.6730000000	147
27.7030000000	154
27.7330000000	144
27.7630000000	147
27.7930000000	145
27.8230000000	140
27.8530000000	142
27.8830000000	155
27.9130000000	142
27.9430000000	138
27.9730000000	125
28.0030000000	138
28.0330000000	141
28.0630000000	148
28.0930000000	170
28.1230000000	167
28.1530000000	167
28.1830000000	202
28.2130000000	226
28.2430000000	241
28.2730000000	236
28.3030000000	198
28.3330000000	186
28.3630000000	172
28.3930000000	178
28.4230000000	163
28.4530000000	149
28.4830000000	152
28.5130000000	153
28.5430000000	145
28.5730000000	128
28.6030000000	123
28.6330000000	134
28.6630000000	127
28.6930000000	120
28.7230000000	112
28.7530000000	144
28.7830000000	131
28.8130000000	130
28.8430000000	126
28.8730000000	108
28.9030000000	132
28.9330000000	122
28.9630000000	146
28.9930000000	118
29.0230000000	111
29.0530000000	128
29.0830000000	130
29.1130000000	108
29.1430000000	119
29.1730000000	119
29.2030000000	116
29.2330000000	125
29.2630000000	128
29.2930000000	143
29.3230000000	125
29.3530000000	122
29.3830000000	107
29.4130000000	122
29.4430000000	109
29.4730000000	119
29.5030000000	105
29.5330000000	108
29.5630000000	116
29.5930000000	129
29.6230000000	116
29.6530000000	118
29.6830000000	112
29.7130000000	126
29.7430000000	125
29.7730000000	95
29.8030000000	98
29.8330000000	117
29.8630000000	115
29.8930000000	134
29.9230000000	121
29.9530000000	116
29.9830000000	112
30.0130000000	116
30.0430000000	102
30.0730000000	129
30.1030000000	120
30.1330000000	139
30.1630000000	137
30.1930000000	136
30.2230000000	129
30.2530000000	114
30.2830000000	126
30.3130000000	110
30.3430000000	139
30.3730000000	115
30.4030000000	111
30.4330000000	121
30.4630000000	103
30.4930000000	112
30.5230000000	112
30.5530000000	123
30.5830000000	113
30.6130000000	122
30.6430000000	125
30.6730000000	141
30.7030000000	127
30.7330000000	119
30.7630000000	115
30.7930000000	112
30.8230000000	111
30.8530000000	110
30.8830000000	136
30.9130000000	123
30.9430000000	104
30.9730000000	102
31.0030000000	117
31.0330000000	103
31.0630000000	121
31.0930000000	104
31.1230000000	121
31.1530000000	96
31.1830000000	104
31.2130000000	117
31.2430000000	107
31.2730000000	104
31.3030000000	117
31.3330000000	107
31.3630000000	93
31.3930000000	116
31.4230000000	121
31.4530000000	95
31.4830000000	111
31.5130000000	112
31.5430000000	93
31.5730000000	92
31.6030000000	103
31.6330000000	119
31.6630000000	107
31.6930000000	106
31.7230000000	103
31.7530000000	100
31.7830000000	111
31.8130000000	95
31.8430000000	107
31.8730000000	108
31.9030000000	104
31.9330000000	93
31.9630000000	91
31.9930000000	113
32.0230000000	99
32.0530000000	100
32.0830000000	106
32.1130000000	103
32.1430000000	115
32.1730000000	112
32.2030000000	90
32.2330000000	99
32.2630000000	113
32.2930000000	115
32.3230000000	116
32.3530000000	106
32.3830000000	96
32.4130000000	102
32.4430000000	107
32.4730000000	106
32.5030000000	92
32.5330000000	87
32.5630000000	102
32.5930000000	94
32.6230000000	116
32.6530000000	106
32.6830000000	104
32.7130000000	108
32.7430000000	100
32.7730000000	104
32.8030000000	116
32.8330000000	113
32.8630000000	91
32.8930000000	100
32.9230000000	114
32.9530000000	106
32.9830000000	94
33.0130000000	106
33.0430000000	125
33.0730000000	116
33.1030000000	126
33.1330000000	137
33.1630000000	121
33.1930000000	111
33.2230000000	119
33.2530000000	113
33.2830000000	112
33.3130000000	126
33.3430000000	156
33.3730000000	165
33.4030000000	241
33.4330000000	282
33.4630000000	385
33.4930000000	588
33.5230000000	872
33.5530000000	1311
33.5830000000	1860
33.6130000000	2369
33.6430000000	2635
33.6730000000	2399
33.7030000000	1964
33.7330000000	1473
33.7630000000	919
33.7930000000	567
33.8230000000	403
33.8530000000	284
33.8830000000	213
33.9130000000	172
33.9430000000	131
33.9730000000	119
34.0030000000	117
34.0330000000	110
34.0630000000	102
34.0930000000	116
34.1230000000	102
34.1530000000	91
34.1830000000	109
34.2130000000	111
34.2430000000	116
34.2730000000	105
34.3030000000	84
34.3330000000	81
34.3630000000	96
34.3930000000	110
34.4230000000	99
34.4530000000	101
34.4830000000	97
34.5130000000	94
34.5430000000	95
34.5730000000	91
34.6030000000	94
34.6330000000	103
34.6630000000	95
34.6930000000	71
34.7230000000	88
34.7530000000	77
34.7830000000	88
34.8130000000	108
34.8430000000	95
34.8730000000	92
34.9030000000	88
34.9330000000	96
34.9630000000	80
34.9930000000	82
35.0230000000	94
35.0530000000	95
35.0830000000	95
35.1130000000	90
35.1430000000	77
35.1730000000	104
35.2030000000	113
35.2330000000	96
35.2630000000	88
35.2930000000	86
35.3230000000	95
35.3530000000	95
35.3830000000	105
35.4130000000	93
35.4430000000	77
35.4730000000	89
35.5030000000	92
35.5330000000	94
35.5630000000	83
35.5930000000	92
35.6230000000	93
35.6530000000	80
35.6830000000	88
35.7130000000	82
35.7430000000	101
35.7730000000	109
35.8030000000	99
35.8330000000	108
35.8630000000	97
35.8930000000	81
35.9230000000	84
35.9530000000	103
35.9830000000	125
36.0130000000	147
36.0430000000	175
36.0730000000	195
36.1030000000	262
36.1330000000	323
36.1630000000	337
36.1930000000	309
36.2230000000	273
36.2530000000	181
36.2830000000	159
36.3130000000	123
36.3430000000	109
36.3730000000	127
36.4030000000	109
36.4330000000	92
36.4630000000	99
36.4930000000	101
36.5230000000	102
36.5530000000	85
36.5830000000	96
36.6130000000	83
36.6430000000	92
36.6730000000	85
36.7030000000	102
36.7330000000	91
36.7630000000	90
36.7930000000	81
36.8230000000	75
36.8530000000	100
36.8830000000	93
36.9130000000	89
36.9430000000	85
36.9730000000	80
37.0030000000	87
37.0330000000	86
37.0630000000	85
37.0930000000	81
37.1230000000	107
37.1530000000	83
37.1830000000	90
37.2130000000	84
37.2430000000	88
37.2730000000	89
37.3030000000	91
37.3330000000	95
37.3630000000	84
37.3930000000	90
37.4230000000	93
37.4530000000	78
37.4830000000	79
37.5130000000	93
37.5430000000	90
37.5730000000	92
37.6030000000	91
37.6330000000	109
37.6630000000	107
37.6930000000	96
37.7230000000	100
37.7530000000	97
37.7830000000	102
37.8130000000	96
37.8430000000	119
37.8730000000	108
37.9030000000	115
37.9330000000	129
37.9630000000	154
37.9930000000	181
38.0230000000	241
38.0530000000	337
38.0830000000	514
38.1130000000	771
38.1430000000	1275
38.1730000000	1804
38.2030000000	2441
38.2330000000	2948
38.2630000000	3070
38.2930000000	2743
38.3230000000	2164
38.3530000000	1556
38.3830000000	1148
38.4130000000	742
38.4430000000	432
38.4730000000	279
38.5030000000	208
38.5330000000	176
38.5630000000	145
38.5930000000	120
38.6230000000	119
38.6530000000	116
38.6830000000	103
38.7130000000	105
38.7430000000	122
38.7730000000	107
38.8030000000	104
38.8330000000	112
38.8630000000	101
38.8930000000	102
38.9230000000	94
38.9530000000	83
38.9830000000	82
39.0130000000	97
39.0430000000	115
39.0730000000	93
39.1030000000	92
39.1330000000	87
39.1630000000	111
39.1930000000	101
39.2230000000	109
39.2530000000	100
39.2830000000	90
39.3130000000	104
39.3430000000	78
39.3730000000	85
39.4030000000	81
39.4330000000	74
39.4630000000	82
39.4930000000	95
39.5230000000	64
39.5530000000	78
39.5830000000	84
39.6130000000	68
39.6430000000	83
39.6730000000	86
39.7030000000	88
39.7330000000	79
39.7630000000	63
39.7930000000	73
39.8230000000	85
39.8530000000	56
39.8830000000	86
39.9130000000	88
39.9430000000	66
39.9730000000	71
40.0030000000	84
40.0330000000	69
40.0630000000	61
40.0930000000	78
40.1230000000	80
40.1530000000	71
40.1830000000	86
40.2130000000	89
40.2430000000	75
40.2730000000	83
40.3030000000	72
40.3330000000	73
40.3630000000	74
40.3930000000	83
40.4230000000	69
40.4530000000	100
40.4830000000	80
40.5130000000	81
40.5430000000	76
40.5730000000	81
40.6030000000	100
40.6330000000	82
40.6630000000	76
40.6930000000	91
40.7230000000	71
40.7530000000	89
40.7830000000	88
40.8130000000	78
40.8430000000	70
40.8730000000	68
40.9030000000	69
40.9330000000	79
40.9630000000	71
40.9930000000	84
41.0230000000	82
41.0530000000	87
41.0830000000	74
41.1130000000	86
41.1430000000	75
41.1730000000	83
41.2030000000	74
41.2330000000	79
41.2630000000	90
41.2930000000	79
41.3230000000	71
41.3530000000	80
41.3830000000	76
41.4130000000	90
41.4430000000	82
41.4730000000	79
41.5030000000	85
41.5330000000	81
41.5630000000	69
41.5930000000	87
41.6230000000	82
41.6530000000	81
41.6830000000	72
41.7130000000	74
41.7430000000	86
41.7730000000	81
41.8030000000	74
41.8330000000	75
41.8630000000	78
41.8930000000	100
41.9230000000	100
41.9530000000	115
41.9830000000	144
42.0130000000	161
42.0430000000	207
42.0730000000	299
42.1030000000	346
42.1330000000	333
42.1630000000	347
42.1930000000	338
42.2230000000	283
42.2530000000	223
42.2830000000	162
42.3130000000	139
42.3430000000	110
42.3730000000	94
42.4030000000	95
42.4330000000	105
42.4630000000	96
42.4930000000	100
42.5230000000	106
42.5530000000	93
42.5830000000	86
42.6130000000	76
42.6430000000	73
42.6730000000	65
42.7030000000	63
42.7330000000	71
42.7630000000	75
42.7930000000	77
42.8230000000	71
42.8530000000	81
42.8830000000	80
42.9130000000	61
42.9430000000	71
42.9730000000	71
43.0030000000	60
43.0330000000	79
43.0630000000	70
43.0930000000	81
43.1230000000	73
43.1530000000	66
43.1830000000	72
43.2130000000	69
43.2430000000	70
43.2730000000	70
43.3030000000	75
43.3330000000	62
43.3630000000	69
43.3930000000	64
43.4230000000	75
43.4530000000	61
43.4830000000	76
43.5130000000	67
43.5430000000	65
43.5730000000	87
43.6030000000	62
43.6330000000	77
43.6630000000	77
43.6930000000	72
43.7230000000	57
43.7530000000	98
43.7830000000	90
43.8130000000	100
43.8430000000	113
43.8730000000	141
43.9030000000	179
43.9330000000	206
43.9630000000	271
43.9930000000	244
44.0230000000	231
44.0530000000	219
44.0830000000	180
44.1130000000	134
44.1430000000	129
44.1730000000	93
44.2030000000	81
44.2330000000	70
44.2630000000	66
44.2930000000	61
44.3230000000	66
44.3530000000	60
44.3830000000	76
44.4130000000	68
44.4430000000	65
44.4730000000	68
44.5030000000	58
44.5330000000	59
44.5630000000	67
44.5930000000	68
44.6230000000	84
44.6530000000	62
44.6830000000	65
44.7130000000	79
44.7430000000	70
44.7730000000	69
44.8030000000	59
44.8330000000	66
44.8630000000	61
44.8930000000	60
44.9230000000	78
44.9530000000	60
44.9830000000	76
45.0130000000	73
45.0430000000	57
45.0730000000	78
45.1030000000	58
45.1330000000	65
45.1630000000	63
45.1930000000	60
45.2230000000	60
45.2530000000	64
45.2830000000	68
45.3130000000	56
45.3430000000	79
45.3730000000	62
45.4030000000	62
45.4330000000	67
45.4630000000	56
45.4930000000	71
45.5230000000	68
45.5530000000	52
45.5830000000	59
45.6130000000	61
45.6430000000	66
45.6730000000	71
45.7030000000	68
45.7330000000	71
45.7630000000	73
45.7930000000	63
45.8230000000	53
45.8530000000	58
45.8830000000	53
45.9130000000	73
45.9430000000	72
45.9730000000	65
46.0030000000	66
46.0330000000	58
46.0630000000	81
46.0930000000	85
46.1230000000	64
46.1530000000	70
46.1830000000	78
46.2130000000	82
46.2430000000	65
46.2730000000	92
46.3030000000	134
46.3330000000	170
46.3630000000	189
46.3930000000	274
46.4230000000	456
46.4530000000	671
46.4830000000	896
46.5130000000	953
46.5430000000	969
46.5730000000	961
46.6030000000	781
46.6330000000	623
46.6630000000	584
46.6930000000	473
46.7230000000	421
46.7530000000	467
46.7830000000	509
46.8130000000	606
46.8430000000	730
46.8730000000	729
46.9030000000	634
46.9330000000	541
46.9630000000	432
46.9930000000	321
47.0230000000	240
47.0530000000	142
47.0830000000	135
47.1130000000	111
47.1430000000	85
47.1730000000	80
47.2030000000	81
47.2330000000	77
47.2630000000	72
47.2930000000	53
47.3230000000	71
47.3530000000	86
47.3830000000	58
47.4130000000	70
47.4430000000	72
47.4730000000	76
47.5030000000	63
47.5330000000	59
47.5630000000	62
47.5930000000	66
47.6230000000	65
47.6530000000	59
47.6830000000	70
47.7130000000	61
47.7430000000	55
47.7730000000	73
47.8030000000	57
47.8330000000	59
47.8630000000	70
47.8930000000	59
47.9230000000	51
47.9530000000	63
47.9830000000	52
48.0130000000	53
48.0430000000	85
48.0730000000	59
48.1030000000	56
48.1330000000	67
48.1630000000	77
48.1930000000	53
48.2230000000	58
48.2530000000	54
48.2830000000	65
48.3130000000	60
48.3430000000	70
48.3730000000	63
48.4030000000	53
48.4330000000	55
48.4630000000	38
48.4930000000	59
48.5230000000	59
48.5530000000	51
48.5830000000	44
48.6130000000	54
48.6430000000	66
48.6730000000	53
48.7030000000	43
48.7330000000	48
48.7630000000	67
48.7930000000	68
48.8230000000	46
48.8530000000	42
48.8830000000	49
48.9130000000	46
48.9430000000	50
48.9730000000	54
49.0030000000	57
49.0330000000	58
49.0630000000	47
49.0930000000	61
49.1230000000	75
49.1530000000	56
49.1830000000	52
49.2130000000	37
49.2430000000	50
49.2730000000	58
49.3030000000	54
49.3330000000	50
49.3630000000	36
49.3930000000	58
49.4230000000	61
49.4530000000	53
49.4830000000	49
49.5130000000	46
49.5430000000	51
49.5730000000	43
49.6030000000	59
49.6330000000	43
49.6630000000	60
49.6930000000	47
49.7230000000	67
49.7530000000	47
49.7830000000	45
49.8130000000	56
49.8430000000	57
49.8730000000	55
49.9030000000	41
49.9330000000	53
49.9630000000	56
49.9930000000	59
50.0230000000	41
50.0530000000	64
50.0830000000	42
50.1130000000	47
50.1430000000	58
50.1730000000	60
50.2030000000	67
50.2330000000	51
50.2630000000	65
50.2930000000	46
50.3230000000	54
50.3530000000	64
50.3830000000	65
50.4130000000	68
50.4430000000	88
50.4730000000	83
50.5030000000	105
50.5330000000	103
50.5630000000	98
50.5930000000	79
50.6230000000	74
50.6530000000	80
50.6830000000	68
50.7130000000	64
50.7430000000	56
50.7730000000	64
50.8030000000	60
50.8330000000	54
50.8630000000	54
50.8930000000	49
50.9230000000	51
50.9530000000	43
50.9830000000	49
51.0130000000	42
51.0430000000	48
51.0730000000	47
51.1030000000	42
51.1330000000	50
51.1630000000	48
51.1930000000	54
51.2230000000	44
51.2530000000	47
51.2830000000	53
51.3130000000	62
51.3430000000	49
51.3730000000	44
51.4030000000	45
51.4330000000	55
51.4630000000	50
51.4930000000	54
51.5230000000	39
51.5530000000	48
51.5830000000	44
51.6130000000	47
51.6430000000	48
51.6730000000	52
51.7030000000	45
51.7330000000	47
51.7630000000	53
51.7930000000	51
51.8230000000	47
51.8530000000	52
51.8830000000	40
51.9130000000	48
51.9430000000	53
51.9730000000	43
52.0030000000	42
52.0330000000	39
52.0630000000	44
52.0930000000	52
52.1230000000	55
52.1530000000	49
52.1830000000	42
52.2130000000	43
52.2430000000	44
52.2730000000	50
52.3030000000	48
52.3330000000	47
52.3630000000	41
52.3930000000	56
52.4230000000	42
52.4530000000	44
52.4830000000	38
52.5130000000	49
52.5430000000	38
52.5730000000	51
52.6030000000	46
52.6330000000	56
52.6630000000	41
52.6930000000	48
52.7230000000	62
52.7530000000	56
52.7830000000	44
52.8130000000	41
52.8430000000	55
52.8730000000	54
52.9030000000	41
52.9330000000	49
52.9630000000	49
52.9930000000	52
53.0230000000	41
53.0530000000	39
53.0830000000	40
53.1130000000	54
53.1430000000	36
53.1730000000	45
53.2030000000	45
53.2330000000	55
53.2630000000	44
53.2930000000	42
53.3230000000	41
53.3530000000	53
53.3830000000	41
53.4130000000	39
53.4430000000	43
53.4730000000	54
53.5030000000	63
53.5330000000	60
53.5630000000	58
53.5930000000	79
53.6230000000	106
53.6530000000	106
53.6830000000	116
53.7130000000	101
53.7430000000	84
53.7730000000	93
53.8030000000	77
53.8330000000	72
53.8630000000	65
53.8930000000	78
53.9230000000	61
53.9530000000	50
53.9830000000	47
54.0130000000	44
54.0430000000	50
54.0730000000	47
54.1030000000	58
54.1330000000	49
54.1630000000	50
54.1930000000	39
54.2230000000	38
54.2530000000	39
54.2830000000	46
54.3130000000	53
54.3430000000	38
54.3730000000	51
54.4030000000	61
54.4330000000	49
54.4630000000	48
54.4930000000	45
54.5230000000	41
54.5530000000	41
54.5830000000	45
54.6130000000	52
54.6430000000	55
54.6730000000	60
54.7030000000	33
54.7330000000	41
54.7630000000	46
54.7930000000	47
54.8230000000	37
54.8530000000	46
54.8830000000	47
54.9130000000	40
54.9430000000	41
54.9730000000	48
55.0030000000	53
55.0330000000	48
55.0630000000	34
55.0930000000	38
55.1230000000	48
55.1530000000	44
55.1830000000	66
55.2130000000	45
55.2430000000	42
55.2730000000	48
55.3030000000	59
55.3330000000	50
55.3630000000	44
55.3930000000	46
55.4230000000	58
55.4530000000	39
55.4830000000	45
55.5130000000	51
55.5430000000	34
55.5730000000	41
55.6030000000	47
55.6330000000	37
55.6630000000	36
55.6930000000	47
55.7230000000	38
55.7530000000	42
55.7830000000	55
55.8130000000	47
55.8430000000	34
55.8730000000	39
55.9030000000	39
55.9330000000	43
55.9630000000	48
55.9930000000	39
56.0230000000	54
56.0530000000	46
56.0830000000	35
56.1130000000	37
56.1430000000	41
56.1730000000	42
56.2030000000	58
56.2330000000	44
56.2630000000	53
56.2930000000	37
56.3230000000	42
56.3530000000	40
56.3830000000	41
56.4130000000	34
56.4430000000	43
56.4730000000	38
56.5030000000	41
56.5330000000	42
56.5630000000	46
56.5930000000	44
56.6230000000	37
56.6530000000	49
56.6830000000	46
56.7130000000	35
56.7430000000	50
56.7730000000	39
56.8030000000	46
56.8330000000	36
56.8630000000	52
56.8930000000	39
56.9230000000	34
56.9530000000	38
56.9830000000	40
57.0130000000	38
57.0430000000	44
57.0730000000	51
57.1030000000	43
57.1330000000	35
57.1630000000	42
57.1930000000	49
57.2230000000	26
57.2530000000	47
57.2830000000	40
57.3130000000	35
57.3430000000	42
57.3730000000	38
57.4030000000	37
57.4330000000	46
57.4630000000	43
57.4930000000	39
57.5230000000	49
57.5530000000	39
57.5830000000	35
57.6130000000	40
57.6430000000	57
57.6730000000	54
57.7030000000	35
57.7330000000	33
57.7630000000	45
57.7930000000	43
57.8230000000	42
57.8530000000	42
57.8830000000	43
57.9130000000	33
57.9430000000	34
57.9730000000	43
58.0030000000	43
58.0330000000	53
58.0630000000	46
58.0930000000	43
58.1230000000	57
58.1530000000	79
58.1830000000	79
58.2130000000	82
58.2430000000	79
58.2730000000	93
58.3030000000	77
58.3330000000	63
58.3630000000	53
58.3930000000	68
58.4230000000	67
58.4530000000	48
58.4830000000	52
58.5130000000	47
58.5430000000	53
58.5730000000	33
58.6030000000	42
58.6330000000	39
58.6630000000	44
58.6930000000	47
58.7230000000	38
58.7530000000	47
58.7830000000	43
58.8130000000	41
58.8430000000	40
58.8730000000	54
58.9030000000	32
58.9330000000	36
58.9630000000	46
58.9930000000	43
59.0230000000	45
59.0530000000	70
59.0830000000	69
59.1130000000	62
59.1430000000	68
59.1730000000	73
59.2030000000	71
59.2330000000	57
59.2630000000	63
59.2930000000	58
59.3230000000	63
59.3530000000	58
59.3830000000	49
59.4130000000	58
59.4430000000	46
59.4730000000	37
59.5030000000	41
59.5330000000	43
59.5630000000	37
59.5930000000	59
59.6230000000	49
59.6530000000	43
59.6830000000	59
59.7130000000	48
59.7430000000	44
59.7730000000	66
59.8030000000	73
59.8330000000	90
59.8630000000	83
59.8930000000	98
59.9230000000	116
59.9530000000	134
59.9830000000	106
60.0130000000	101
60.0430000000	98
60.0730000000	122
60.1030000000	99
60.1330000000	68
60.1630000000	52
60.1930000000	64
60.2230000000	45
60.2530000000	44
60.2830000000	49
60.3130000000	52
60.3430000000	33
60.3730000000	45
60.4030000000	39
60.4330000000	49
60.4630000000	49
60.4930000000	44
60.5230000000	48
60.5530000000	56
60.5830000000	48
60.6130000000	53
60.6430000000	41
60.6730000000	41
60.7030000000	47
60.7330000000	43
60.7630000000	49
60.7930000000	42
60.8230000000	54
60.8530000000	47
60.8830000000	53
60.9130000000	38
60.9430000000	41
60.9730000000	43
61.0030000000	22
61.0330000000	38
61.0630000000	50
61.0930000000	44
61.1230000000	43
61.1530000000	40
61.1830000000	35
61.2130000000	44
61.2430000000	45
61.2730000000	44
61.3030000000	34
61.3330000000	42
61.3630000000	29
61.3930000000	42
61.4230000000	44
61.4530000000	41
61.4830000000	47
61.5130000000	43
61.5430000000	47
61.5730000000	36
61.6030000000	46
61.6330000000	33
61.6630000000	37
61.6930000000	43
61.7230000000	43
61.7530000000	33
61.7830000000	39
61.8130000000	43
61.8430000000	44
61.8730000000	52
61.9030000000	31
61.9330000000	48
61.9630000000	72
61.9930000000	66
62.0230000000	65
62.0530000000	80
62.0830000000	83
62.1130000000	68
62.1430000000	63
62.1730000000	61
62.2030000000	69
62.2330000000	63
62.2630000000	50
62.2930000000	50
62.3230000000	41
62.3530000000	44
62.3830000000	46
62.4130000000	36
62.4430000000	30
62.4730000000	43
62.5030000000	39
62.5330000000	38
62.5630000000	32
62.5930000000	37
62.6230000000	42
62.6530000000	31
62.6830000000	23
62.7130000000	44
62.7430000000	57
62.7730000000	41
62.8030000000	34
62.8330000000	36
62.8630000000	33
62.8930000000	46
62.9230000000	42
62.9530000000	34
62.9830000000	45
63.0130000000	41
63.0430000000	47
63.0730000000	47
63.1030000000	52
63.1330000000	47
63.1630000000	43
63.1930000000	56
63.2230000000	61
63.2530000000	48
63.2830000000	40
63.3130000000	44
63.3430000000	38
63.3730000000	34
63.4030000000	45
63.4330000000	43
63.4630000000	36
63.4930000000	33
63.5230000000	42
63.5530000000	38
63.5830000000	49
63.6130000000	34
63.6430000000	30
63.6730000000	44
63.7030000000	47
63.7330000000	34
63.7630000000	45
63.7930000000	53
63.8230000000	44
63.8530000000	34
63.8830000000	50
63.9130000000	48
63.9430000000	38
63.9730000000	46
64.0030000000	39
64.0330000000	30
64.0630000000	42
64.0930000000	25
64.1230000000	35
64.1530000000	29
64.1830000000	33
64.2130000000	46
64.2430000000	34
64.2730000000	35
64.3030000000	31
64.3330000000	29
64.3630000000	43
64.3930000000	49
64.4230000000	53
64.4530000000	38
64.4830000000	35
64.5130000000	46
64.5430000000	35
64.5730000000	45
64.6030000000	41
64.6330000000	28
64.6630000000	37
64.6930000000	37
64.7230000000	34
64.7530000000	40
64.7830000000	39
64.8130000000	41
64.8430000000	57
64.8730000000	32
64.9030000000	45
64.9330000000	32
64.9630000000	39
64.9930000000	32
65.0230000000	36
65.0530000000	37
65.0830000000	34
65.1130000000	44
65.1430000000	33
65.1730000000	45
65.2030000000	32
65.2330000000	53
65.2630000000	40
65.2930000000	43
65.3230000000	45
65.3530000000	41
65.3830000000	33
65.4130000000	43
65.4430000000	38
65.4730000000	40
65.5030000000	29
65.5330000000	32
65.5630000000	45
65.5930000000	38
65.6230000000	39
65.6530000000	32
65.6830000000	38
65.7130000000	34
65.7430000000	38
65.7730000000	42
65.8030000000	45
65.8330000000	51
65.8630000000	46
65.8930000000	47
65.9230000000	41
65.9530000000	46
65.9830000000	51
66.0130000000	48
66.0430000000	58
66.0730000000	75
66.1030000000	94
66.1330000000	94
66.1630000000	109
66.1930000000	99
66.2230000000	114
66.2530000000	123
66.2830000000	108
66.3130000000	98
66.3430000000	106
66.3730000000	96
66.4030000000	66
66.4330000000	79
66.4630000000	70
66.4930000000	46
66.5230000000	51
66.5530000000	46
66.5830000000	35
66.6130000000	39
66.6430000000	42
66.6730000000	40
66.7030000000	50
66.7330000000	50
66.7630000000	32
66.7930000000	36
66.8230000000	55
66.8530000000	55
66.8830000000	44
66.9130000000	39
66.9430000000	43
66.9730000000	48
67.0030000000	43
67.0330000000	36
67.0630000000	45
67.0930000000	42
67.1230000000	38
67.1530000000	48
67.1830000000	41
67.2130000000	27
67.2430000000	42
67.2730000000	50
67.3030000000	33
67.3330000000	35
67.3630000000	45
67.3930000000	29
67.4230000000	26
67.4530000000	43
67.4830000000	36
67.5130000000	38
67.5430000000	35
67.5730000000	40
67.6030000000	38
67.6330000000	40
67.6630000000	45
67.6930000000	39
67.7230000000	40
67.7530000000	40
67.7830000000	41
67.8130000000	37
67.8430000000	36
67.8730000000	40
67.9030000000	39
67.9330000000	41
67.9630000000	46
67.9930000000	43
68.0230000000	52
68.0530000000	49
68.0830000000	47
68.1130000000	44
68.1430000000	36
68.1730000000	47
68.2030000000	40
68.2330000000	27
68.2630000000	44
68.2930000000	49
68.3230000000	40
68.3530000000	42
68.3830000000	32
68.4130000000	41
68.4430000000	33
68.4730000000	33
68.5030000000	32
68.5330000000	43
68.5630000000	35
68.5930000000	45
68.6230000000	31
68.6530000000	45
68.6830000000	58
68.7130000000	38
68.7430000000	46
68.7730000000	56
68.8030000000	64
68.8330000000	80
68.8630000000	78
68.8930000000	86
68.9230000000	82
68.9530000000	73
68.9830000000	65
69.0130000000	78
69.0430000000	74
69.0730000000	72
69.1030000000	68
69.1330000000	73
69.1630000000	94
69.1930000000	74
69.2230000000	69
69.2530000000	77
69.2830000000	74
69.3130000000	66
69.3430000000	63
69.3730000000	60
69.4030000000	61
69.4330000000	54
69.4630000000	56
69.4930000000	60
69.5230000000	43
69.5530000000	36
69.5830000000	41
69.6130000000	43
69.6430000000	43
69.6730000000	33
69.7030000000	41
69.7330000000	41
69.7630000000	30
69.7930000000	30
69.8230000000	46
69.8530000000	38
69.8830000000	44
69.9130000000	37
69.9430000000	31
69.9730000000	40
70.0030000000	39
70.0330000000	41
70.0630000000	32
70.0930000000	37
70.1230000000	38
70.1530000000	36
70.1830000000	40
70.2130000000	33
70.2430000000	37
70.2730000000	36
70.3030000000	34
70.3330000000	44
70.3630000000	40
70.3930000000	43
70.4230000000	40
70.4530000000	49
70.4830000000	32
70.5130000000	37
70.5430000000	43
70.5730000000	31
70.6030000000	38
70.6330000000	45
70.6630000000	26
70.6930000000	35
70.7230000000	44
70.7530000000	43
70.7830000000	32
70.8130000000	35
70.8430000000	40
70.8730000000	37
70.9030000000	34
70.9330000000	35
70.9630000000	31
70.9930000000	37
71.0230000000	36
71.0530000000	30
71.0830000000	34
71.1130000000	39
71.1430000000	42
71.1730000000	39
71.2030000000	42
71.2330000000	38
71.2630000000	34
71.2930000000	36
71.3230000000	43
71.3530000000	40
71.3830000000	41
71.4130000000	37
71.4430000000	27
71.4730000000	41
71.5030000000	44
71.5330000000	36
71.5630000000	42
71.5930000000	40
71.6230000000	32
71.6530000000	45
71.6830000000	36
71.7130000000	30
71.7430000000	30
71.7730000000	38
71.8030000000	30
71.8330000000	39
71.8630000000	40
71.8930000000	44
71.9230000000	50
71.9530000000	44
71.9830000000	43
72.0130000000	48
72.0430000000	50
72.0730000000	56
72.1030000000	49
72.1330000000	48
72.1630000000	46
72.1930000000	67
72.2230000000	68
72.2530000000	73
72.2830000000	82
72.3130000000	83
72.3430000000	76
72.3730000000	65
72.4030000000	70
72.4330000000	57
72.4630000000	59
72.4930000000	68
72.5230000000	53
72.5530000000	54
72.5830000000	46
72.6130000000	40
72.6430000000	46
72.6730000000	51
72.7030000000	42
72.7330000000	40
72.7630000000	54
72.7930000000	38
72.8230000000	41
72.8530000000	35
72.8830000000	38
72.9130000000	41
72.9430000000	34
72.9730000000	41
73.0030000000	31
73.0330000000	36
73.0630000000	50
73.0930000000	41
73.1230000000	41
73.1530000000	41
73.1830000000	40
73.2130000000	62
73.2430000000	59
73.2730000000	76
73.3030000000	72
73.3330000000	91
73.3630000000	93
73.3930000000	90
73.4230000000	91
73.4530000000	81
73.4830000000	76
73.5130000000	64
73.5430000000	71
73.5730000000	64
73.6030000000	52
73.6330000000	45
73.6630000000	47
73.6930000000	53
73.7230000000	44
73.7530000000	36
73.7830000000	48
73.8130000000	34
73.8430000000	43
73.8730000000	33
73.9030000000	46
73.9330000000	39
73.9630000000	52
73.9930000000	48
74.0230000000	36
74.0530000000	44
74.0830000000	32
74.1130000000	45
74.1430000000	43
74.1730000000	40
74.2030000000	42
74.2330000000	44
74.2630000000	32
74.2930000000	40
74.3230000000	29
74.3530000000	37
74.3830000000	37
74.4130000000	35
74.4430000000	37
74.4730000000	37
74.5030000000	44
74.5330000000	49
74.5630000000	43
74.5930000000	41
74.6230000000	37
74.6530000000	54
74.6830000000	56
74.7130000000	46
74.7430000000	46
74.7730000000	48
74.8030000000	42
74.8330000000	40
74.8630000000	57
74.8930000000	59
74.9230000000	67
74.9530000000	99
74.9830000000	84
75.0130000000	102
75.0430000000	90
75.0730000000	90
75.1030000000	109
75.1330000000	96
75.1630000000	114
75.1930000000	96
75.2230000000	96
75.2530000000	87
75.2830000000	91
75.3130000000	88
75.3430000000	80
75.3730000000	73
75.4030000000	67
75.4330000000	66
75.4630000000	70
75.4930000000	70
75.5230000000	63
75.5530000000	47
75.5830000000	43
75.6130000000	50
75.6430000000	51
75.6730000000	43
75.7030000000	57
75.7330000000	32
75.7630000000	43
75.7930000000	48
75.8230000000	45
75.8530000000	53
75.8830000000	35
75.9130000000	40
75.9430000000	44
75.9730000000	30
76.0030000000	42
76.0330000000	37
76.0630000000	36
76.0930000000	42
76.1230000000	39
76.1530000000	43
76.1830000000	38
76.2130000000	52
76.2430000000	42
76.2730000000	45
76.3030000000	40
76.3330000000	29
76.3630000000	44
76.3930000000	39
76.4230000000	38
76.4530000000	29
76.4830000000	38
76.5130000000	41
76.5430000000	42
76.5730000000	49
76.6030000000	42
76.6330000000	43
76.6630000000	43
76.6930000000	46
76.7230000000	51
76.7530000000	53
76.7830000000	45
76.8130000000	47
76.8430000000	79
76.8730000000	49
76.9030000000	47
76.9330000000	48
76.9630000000	45
76.9930000000	40
77.0230000000	41
77.0530000000	52
77.0830000000	41
77.1130000000	44
77.1430000000	30
77.1730000000	26
77.2030000000	30
77.2330000000	37
77.2630000000	35
77.2930000000	44
77.3230000000	43
77.3530000000	45
77.3830000000	35
77.4130000000	48
77.4430000000	44
77.4730000000	45
77.5030000000	49
77.5330000000	44
77.5630000000	53
77.5930000000	54
77.6230000000	49
77.6530000000	60
77.6830000000	52
77.7130000000	42
77.7430000000	51
77.7730000000	43
77.8030000000	31
77.8330000000	38
77.8630000000	39
77.8930000000	34
77.9230000000	38
77.9530000000	38
77.9830000000	33
78.0130000000	42
78.0430000000	43
78.0730000000	36
78.1030000000	30
78.1330000000	43
78.1630000000	43
78.1930000000	37
78.2230000000	41
78.2530000000	40
78.2830000000	41
78.3130000000	40
78.3430000000	41
78.3730000000	50
78.4030000000	42
78.4330000000	39
78.4630000000	42
78.4930000000	47
78.5230000000	34
78.5530000000	34
78.5830000000	32
78.6130000000	28
78.6430000000	27
78.6730000000	41
78.7030000000	42
78.7330000000	32
78.7630000000	36
78.7930000000	37
78.8230000000	38
78.8530000000	31
78.8830000000	34
78.9130000000	41
78.9430000000	40
78.9730000000	27
79.0030000000	30
79.0330000000	38
79.0630000000	34
79.0930000000	48
79.1230000000	35
79.1530000000	34
79.1830000000	41
79.2130000000	38
79.2430000000	38
79.2730000000	36
79.3030000000	31
79.3330000000	43
79.3630000000	26
79.3930000000	30
79.4230000000	30
79.4530000000	30
79.4830000000	31
79.5130000000	33
79.5430000000	38
79.5730000000	30
79.6030000000	34
79.6330000000	28
79.6630000000	36
79.6930000000	33
79.7230000000	45
79.7530000000	40
79.7830000000	38
79.8130000000	25
79.8430000000	48
79.8730000000	46
79.9030000000	30
79.9330000000	34
79.9630000000	38
79.9930000000	30
80.0230000000	38
80.0530000000	41
80.0830000000	29
80.1130000000	38
80.1430000000	35
80.1730000000	36
80.2030000000	24
80.2330000000	34
80.2630000000	42
80.2930000000	39
80.3230000000	39
80.3530000000	36
80.3830000000	38
80.4130000000	41
80.4430000000	39
80.4730000000	39
80.5030000000	40
80.5330000000	46
80.5630000000	43
80.5930000000	50
80.6230000000	49
80.6530000000	41
80.6830000000	44
80.7130000000	42
80.7430000000	39
80.7730000000	34
80.8030000000	56
80.8330000000	40
80.8630000000	50
80.8930000000	64
80.9230000000	53
80.9530000000	54
80.9830000000	40
81.0130000000	35
81.0430000000	47
81.0730000000	31
81.1030000000	43
81.1330000000	50
81.1630000000	51
81.1930000000	26
81.2230000000	35
81.2530000000	40
81.2830000000	43
81.3130000000	31
81.3430000000	46
81.3730000000	47
81.4030000000	43
81.4330000000	53
81.4630000000	53
81.4930000000	47
81.5230000000	71
81.5530000000	51
81.5830000000	70
81.6130000000	47
81.6430000000	71
81.6730000000	67
81.7030000000	50
81.7330000000	67
81.7630000000	57
81.7930000000	53
81.8230000000	53
81.8530000000	67
81.8830000000	55
81.9130000000	66
81.9430000000	60
81.9730000000	46
82.0030000000	59
82.0330000000	61
82.0630000000	51
82.0930000000	48
82.1230000000	46
82.1530000000	47
82.1830000000	40
82.2130000000	41
82.2430000000	51
82.2730000000	43
82.3030000000	40
82.3330000000	39
82.3630000000	39
82.3930000000	38
82.4230000000	36
82.4530000000	42
82.4830000000	41
82.5130000000	31
82.5430000000	46
82.5730000000	46
82.6030000000	44
82.6330000000	43
82.6630000000	41
82.6930000000	41
82.7230000000	51
82.7530000000	25
82.7830000000	33
82.8130000000	45
82.8430000000	40
82.8730000000	37
82.9030000000	32
82.9330000000	43
82.9630000000	43
82.9930000000	38
83.0230000000	34
83.0530000000	31
83.0830000000	29
83.1130000000	40
83.1430000000	41
83.1730000000	38
83.2030000000	31
83.2330000000	20
83.2630000000	36
83.2930000000	31
83.3230000000	35
83.3530000000	35
83.3830000000	46
83.4130000000	37
83.4430000000	40
83.4730000000	38
83.5030000000	33
83.5330000000	54
83.5630000000	39
83.5930000000	62
83.6230000000	48
83.6530000000	55
83.6830000000	64
83.7130000000	62
83.7430000000	50
83.7730000000	69
83.8030000000	43
83.8330000000	49
83.8630000000	56
83.8930000000	55
83.9230000000	49
83.9530000000	49
83.9830000000	45
84.0130000000	40
84.0430000000	34
84.0730000000	40
84.1030000000	38
84.1330000000	32
84.1630000000	33
84.1930000000	39
84.2230000000	40
84.2530000000	36
84.2830000000	38
84.3130000000	38
84.3430000000	45
84.3730000000	34
84.4030000000	48
84.4330000000	36
84.4630000000	37
84.4930000000	40
84.5230000000	40
84.5530000000	41
84.5830000000	36
84.6130000000	45
84.6430000000	44
84.6730000000	41
84.7030000000	43
84.7330000000	56
84.7630000000	72
84.7930000000	78
84.8230000000	101
84.8530000000	86
84.8830000000	69
84.9130000000	76
84.9430000000	69
84.9730000000	69
85.0030000000	64
85.0330000000	75
85.0630000000	47
85.0930000000	65
85.1230000000	53
85.1530000000	48
85.1830000000	56
85.2130000000	42
85.2430000000	33
85.2730000000	39
85.3030000000	30
85.3330000000	33
85.3630000000	33
85.3930000000	23
85.4230000000	42
85.4530000000	45
85.4830000000	45
85.5130000000	28
85.5430000000	35
85.5730000000	48
85.6030000000	40
85.6330000000	60
85.6630000000	49
85.6930000000	51
85.7230000000	53
85.7530000000	52
85.7830000000	40
85.8130000000	46
85.8430000000	44
85.8730000000	51
85.9030000000	37
85.9330000000	32
85.9630000000	34
85.9930000000	42
86.0230000000	39
86.0530000000	32
86.0830000000	38
86.1130000000	37
86.1430000000	31
86.1730000000	42
86.2030000000	39
86.2330000000	39
86.2630000000	29
86.2930000000	34
86.3230000000	38
86.3530000000	41
86.3830000000	37
86.4130000000	45
86.4430000000	40
86.4730000000	34
86.5030000000	36
86.5330000000	26
86.5630000000	39
86.5930000000	32
86.6230000000	26
86.6530000000	40
86.6830000000	39
86.7130000000	45
86.7430000000	48
86.7730000000	42
86.8030000000	34
86.8330000000	35
86.8630000000	32
86.8930000000	32
86.9230000000	28
86.9530000000	29
86.9830000000	31
87.0130000000	30
87.0430000000	31
87.0730000000	35
87.1030000000	37
87.1330000000	34
87.1630000000	46
87.1930000000	53
87.2230000000	46
87.2530000000	40
87.2830000000	34
87.3130000000	35
87.3430000000	43
87.3730000000	38
87.4030000000	34
87.4330000000	48
87.4630000000	41
87.4930000000	35
87.5230000000	35
87.5530000000	28
87.5830000000	34
87.6130000000	34
87.6430000000	26
87.6730000000	30
87.7030000000	28
87.7330000000	32
87.7630000000	46
87.7930000000	35
87.8230000000	40
87.8530000000	33
87.8830000000	33
87.9130000000	37
87.9430000000	39
87.9730000000	33
88.0030000000	42
88.0330000000	35
88.0630000000	41
88.0930000000	43
88.1230000000	44
88.1530000000	34
88.1830000000	39
88.2130000000	34
88.2430000000	34
88.2730000000	33
88.3030000000	32
88.3330000000	31
88.3630000000	44
88.3930000000	34
88.4230000000	27
88.4530000000	42
88.4830000000	36
88.5130000000	26
88.5430000000	42
88.5730000000	39
88.6030000000	37
88.6330000000	38
88.6630000000	43
88.6930000000	37
88.7230000000	34
88.7530000000	37
88.7830000000	41
88.8130000000	32
88.8430000000	30
88.8730000000	44
88.9030000000	39
88.9330000000	36
88.9630000000	47
88.9930000000	50
89.0230000000	35
89.0530000000	47
89.0830000000	47
89.1130000000	27
89.1430000000	44
89.1730000000	47
89.2030000000	51
89.2330000000	60
89.2630000000	50
89.2930000000	36
89.3230000000	50
89.3530000000	55
89.3830000000	38
89.4130000000	30
89.4430000000	34
89.4730000000	54
89.5030000000	51
89.5330000000	47
89.5630000000	40
89.5930000000	34
89.6230000000	29
89.6530000000	43
89.6830000000	33
89.7130000000	35
89.7430000000	45
89.7730000000	41
89.8030000000	39
89.8330000000	51
89.8630000000	65
89.8930000000	44
89.9230000000	48
89.9530000000	28
89.9830000000	51
90.0130000000	49
90.0430000000	35
90.0730000000	36
90.1030000000	44
90.1330000000	43
90.1630000000	48
90.1930000000	34
90.2230000000	38
90.2530000000	38
90.2830000000	38
90.3130000000	36
90.3430000000	36
90.3730000000	38
90.4030000000	34
90.4330000000	37
90.4630000000	42
90.4930000000	47
90.5230000000	30
90.5530000000	37
90.5830000000	36
90.6130000000	34
90.6430000000	43
90.6730000000	38
90.7030000000	21
90.7330000000	32
90.7630000000	36
90.7930000000	41
90.8230000000	39
90.8530000000	27
90.8830000000	37
90.9130000000	32
90.9430000000	36
90.9730000000	48
91.0030000000	32
91.0330000000	34
91.0630000000	32
91.0930000000	36
91.1230000000	44
91.1530000000	34
91.1830000000	39
91.2130000000	41
91.2430000000	43
91.2730000000	46
91.3030000000	41
91.3330000000	39
91.3630000000	30
91.3930000000	44
91.4230000000	43
91.4530000000	32
91.4830000000	39
91.5130000000	39
91.5430000000	37
91.5730000000	33
91.6030000000	39
91.6330000000	39
91.6630000000	31
91.6930000000	36
91.7230000000	38
91.7530000000	39
91.7830000000	39
91.8130000000	33
91.8430000000	38
91.8730000000	37
91.9030000000	50
91.9330000000	45
91.9630000000	38
91.9930000000	37
92.0230000000	36
92.0530000000	37
92.0830000000	36
92.1130000000	39
92.1430000000	30
92.1730000000	31
92.2030000000	53
92.2330000000	41
92.2630000000	27
92.2930000000	27
92.3230000000	33
92.3530000000	35
92.3830000000	41
92.4130000000	29
92.4430000000	46
92.4730000000	30
92.5030000000	49
92.5330000000	43
92.5630000000	26
92.5930000000	44
92.6230000000	37
92.6530000000	44
92.6830000000	39
92.7130000000	38
92.7430000000	43
92.7730000000	30
92.8030000000	34
92.8330000000	39
92.8630000000	32
92.8930000000	33
92.9230000000	45
92.9530000000	42
92.9830000000	50
93.0130000000	46
93.0430000000	46
93.0730000000	36
93.1030000000	31
93.1330000000	39
93.1630000000	42
93.1930000000	38
93.2230000000	34
93.2530000000	37
93.2830000000	39
93.3130000000	33
93.3430000000	39
93.3730000000	32
93.4030000000	44
93.4330000000	39
93.4630000000	42
93.4930000000	31
93.5230000000	36
93.5530000000	36
93.5830000000	48
93.6130000000	29
93.6430000000	37
93.6730000000	40
93.7030000000	46
93.7330000000	41
93.7630000000	46
93.7930000000	41
93.8230000000	39
93.8530000000	39
93.8830000000	41
93.9130000000	34
93.9430000000	41
93.9730000000	33
94.0030000000	43
94.0330000000	33
94.0630000000	28
94.0930000000	43
94.1230000000	38
94.1530000000	55
94.1830000000	52
94.2130000000	48
94.2430000000	53
94.2730000000	50
94.3030000000	43
94.3330000000	38
94.3630000000	60
94.3930000000	50
94.4230000000	50
94.4530000000	57
94.4830000000	59
94.5130000000	71
94.5430000000	78
94.5730000000	61
94.6030000000	59
94.6330000000	58
94.6630000000	46
94.6930000000	42
94.7230000000	45
94.7530000000	48
94.7830000000	49
94.8130000000	40
94.8430000000	47
94.8730000000	43
94.9030000000	38
94.9330000000	32
94.9630000000	38
94.9930000000	46
95.0230000000	28
95.0530000000	38
95.0830000000	53
95.1130000000	44
95.1430000000	22
95.1730000000	39
95.2030000000	42
95.2330000000	43
95.2630000000	33
95.2930000000	43
95.3230000000	36
95.3530000000	27
95.3830000000	39
95.4130000000	45
95.4430000000	39
95.4730000000	46
95.5030000000	39
95.5330000000	37
95.5630000000	39
95.5930000000	34
95.6230000000	38
95.6530000000	43
95.6830000000	53
95.7130000000	37
95.7430000000	34
95.7730000000	45
95.8030000000	33
95.8330000000	35
95.8630000000	36
95.8930000000	37
95.9230000000	43
95.9530000000	42
95.9830000000	34
96.0130000000	33
96.0430000000	29
96.0730000000	30
96.1030000000	37
96.1330000000	33
96.1630000000	38
96.1930000000	35
96.2230000000	44
96.2530000000	43
96.2830000000	39
96.3130000000	39
96.3430000000	43
96.3730000000	32
96.4030000000	37
96.4330000000	42
96.4630000000	27
96.4930000000	33
96.5230000000	41
96.5530000000	31
96.5830000000	34
96.6130000000	40
96.6430000000	35
96.6730000000	44
96.7030000000	40
96.7330000000	31
96.7630000000	28
96.7930000000	45
96.8230000000	45
96.8530000000	40
96.8830000000	43
96.9130000000	28
96.9430000000	30
96.9730000000	45
97.0030000000	30
97.0330000000	37
97.0630000000	33
97.0930000000	34
97.1230000000	35
97.1530000000	38
97.1830000000	39
97.2130000000	45
97.2430000000	35
97.2730000000	48
97.3030000000	46
97.3330000000	38
97.3630000000	43
97.3930000000	45
97.4230000000	38
97.4530000000	35
97.4830000000	37
97.5130000000	33
97.5430000000	47
97.5730000000	40
97.6030000000	33
97.6330000000	46
97.6630000000	31
97.6930000000	38
97.7230000000	36
97.7530000000	43
97.7830000000	37
97.8130000000	41
97.8430000000	37
97.8730000000	39
97.9030000000	33
97.9330000000	42
97.9630000000	33
97.9930000000	43
98.0230000000	29
98.0530000000	31
98.0830000000	41
98.1130000000	37
98.1430000000	45
98.1730000000	35
98.2030000000	27
98.2330000000	46
98.2630000000	49
98.2930000000	45
98.3230000000	34
98.3530000000	41
98.3830000000	40
98.4130000000	25
98.4430000000	42
98.4730000000	35
98.5030000000	41
98.5330000000	31
98.5630000000	27
98.5930000000	43
98.6230000000	39
98.6530000000	32
98.6830000000	41
98.7130000000	45
98.7430000000	45
98.7730000000	43
98.8030000000	49
98.8330000000	51
98.8630000000	34
98.8930000000	52
98.9230000000	43
98.9530000000	34
98.9830000000	42
99.0130000000	33
99.0430000000	36
99.0730000000	25
99.1030000000	31
99.1330000000	36
99.1630000000	33
99.1930000000	32
99.2230000000	32
99.2530000000	32
99.2830000000	42
99.3130000000	29
99.3430000000	31
99.3730000000	38
99.4030000000	35
99.4330000000	29
99.4630000000	40
99.4930000000	39
99.5230000000	43
99.5530000000	39
99.5830000000	34
99.6130000000	30
99.6430000000	40
99.6730000000	39
99.7030000000	38
99.7330000000	34
99.7630000000	27
99.7930000000	30
99.8230000000	42
99.8530000000	29
99.8830000000	41
99.9130000000	35
99.9430000000	26
99.9730000000	43
100.0030000000	40
100.0330000000	40
100.0630000000	38
100.0930000000	34
100.1230000000	33
100.1530000000	35
100.1830000000	32
100.2130000000	30
100.2430000000	44
100.2730000000	49
100.3030000000	37
100.3330000000	39
100.3630000000	29
100.3930000000	38
100.4230000000	53
100.4530000000	32
100.4830000000	38
100.5130000000	29
100.5430000000	38
100.5730000000	40
100.6030000000	32
100.6330000000	30
100.6630000000	44
100.6930000000	27
100.7230000000	29
100.7530000000	39
100.7830000000	38
100.8130000000	31
100.8430000000	35
100.8730000000	30
100.9030000000	45
100.9330000000	36
100.9630000000	31
100.9930000000	30
101.0230000000	24
101.0530000000	31
101.0830000000	27
101.1130000000	35
101.1430000000	32
101.1730000000	41
101.2030000000	33
101.2330000000	37
101.2630000000	38
101.2930000000	37
101.3230000000	31
101.3530000000	34
101.3830000000	25
101.4130000000	27
101.4430000000	33
101.4730000000	22
101.5030000000	27
101.5330000000	32
101.5630000000	31
101.5930000000	29
101.6230000000	31
101.6530000000	36
101.6830000000	38
101.7130000000	40
101.7430000000	38
101.7730000000	28
101.8030000000	43
101.8330000000	36
101.8630000000	35
101.8930000000	28
101.9230000000	24
101.9530000000	35
101.9830000000	36
102.0130000000	34
102.0430000000	36
102.0730000000	32
102.1030000000	30
102.1330000000	26
102.1630000000	34
102.1930000000	30
102.2230000000	30
102.2530000000	36
102.2830000000	46
102.3130000000	40
102.3430000000	34
102.3730000000	34
102.4030000000	33
102.4330000000	39
102.4630000000	38
102.4930000000	41
102.5230000000	37
102.5530000000	27
102.5830000000	32
102.6130000000	43
102.6430000000	40
102.6730000000	45
102.7030000000	31
102.7330000000	37
102.7630000000	39
102.7930000000	35
102.8230000000	47
102.8530000000	41
102.8830000000	30
102.9130000000	32
102.9430000000	41
102.9730000000	36
103.0030000000	23
103.0330000000	36
103.0630000000	38
103.0930000000	43
103.1230000000	30
103.1530000000	29
103.1830000000	31
103.2130000000	34
103.2430000000	31
103.2730000000	31
103.3030000000	37
103.3330000000	24
103.3630000000	28
103.3930000000	35
103.4230000000	38
103.4530000000	31
103.4830000000	41
103.5130000000	38
103.5430000000	33
103.5730000000	34
103.6030000000	37
103.6330000000	28
103.6630000000	38
103.6930000000	31
103.7230000000	51
103.7530000000	40
103.7830000000	36
103.8130000000	30
103.8430000000	35
103.8730000000	37
103.9030000000	30
103.9330000000	32
103.9630000000	42
103.9930000000	47
104.0230000000	44
104.0530000000	31
104.0830000000	35
104.1130000000	33
104.1430000000	41
104.1730000000	51
104.2030000000	47
104.2330000000	47
104.2630000000	34
104.2930000000	33
104.3230000000	31
104.3530000000	30
104.3830000000	40
104.4130000000	37
104.4430000000	43
104.4730000000	48
104.5030000000	52
104.5330000000	35
104.5630000000	41
104.5930000000	38
104.6230000000	37
104.6530000000	46
104.6830000000	46
104.7130000000	38
104.7430000000	39
104.7730000000	35
104.8030000000	41
104.8330000000	32
104.8630000000	43
104.8930000000	45
104.9230000000	33
104.9530000000	36
104.9830000000	33
105.0130000000	57
105.0430000000	53
105.0730000000	44
105.1030000000	44
105.1330000000	37
105.1630000000	38
105.1930000000	39
105.2230000000	41
105.2530000000	34
105.2830000000	28
105.3130000000	41
105.3430000000	37
105.3730000000	30
105.4030000000	36
105.4330000000	31
105.4630000000	36
105.4930000000	46
105.5230000000	34
105.5530000000	32
105.5830000000	32
105.6130000000	20
105.6430000000	31
105.6730000000	40
105.7030000000	31
105.7330000000	42
105.7630000000	36
105.7930000000	42
105.8230000000	37
105.8530000000	39
105.8830000000	40
105.9130000000	28
105.9430000000	36
105.9730000000	34
106.0030000000	29
106.0330000000	53
106.0630000000	39
106.0930000000	45
106.1230000000	40
106.1530000000	38
106.1830000000	42
106.2130000000	40
106.2430000000	26
106.2730000000	29
106.3030000000	38
106.3330000000	33
106.3630000000	30
106.3930000000	34
106.4230000000	35
106.4530000000	30
106.4830000000	35
106.5130000000	34
106.5430000000	33
106.5730000000	37
106.6030000000	24
106.6330000000	41
106.6630000000	25
106.6930000000	43
106.7230000000	28
106.7530000000	27
106.7830000000	32
106.8130000000	44
106.8430000000	24
106.8730000000	30
106.9030000000	20
106.9330000000	38
106.9630000000	40
106.9930000000	33
107.0230000000	36
107.0530000000	38
107.0830000000	41
107.1130000000	32
107.1430000000	43
107.1730000000	35
107.2030000000	31
107.2330000000	40
107.2630000000	39
107.2930000000	32
107.3230000000	32
107.3530000000	29
107.3830000000	36
107.4130000000	31
107.4430000000	22
107.4730000000	29
107.5030000000	31
107.5330000000	39
107.5630000000	31
107.5930000000	31
107.6230000000	36
107.6530000000	28
107.6830000000	28
107.7130000000	36
107.7430000000	31
107.7730000000	26
107.8030000000	26
107.8330000000	27
107.8630000000	38
107.8930000000	39
107.9230000000	30
107.9530000000	31
107.9830000000	33
108.0130000000	30
108.0430000000	29
108.0730000000	41
108.1030000000	31
108.1330000000	26
108.1630000000	35
108.1930000000	40
108.2230000000	47
108.2530000000	30
108.2830000000	38
108.3130000000	43
108.3430000000	33
108.3730000000	52
108.4030000000	41
108.4330000000	38
108.4630000000	43
108.4930000000	45
108.5230000000	40
108.5530000000	46
108.5830000000	44
108.6130000000	47
108.6430000000	50
108.6730000000	43
108.7030000000	63
108.7330000000	38
108.7630000000	61
108.7930000000	49
108.8230000000	40
108.8530000000	43
108.8830000000	52
108.9130000000	51
108.9430000000	49
108.9730000000	51
109.0030000000	50
109.0330000000	45
109.0630000000	54
109.0930000000	48
109.1230000000	47
109.1530000000	41
109.1830000000	55
109.2130000000	57
109.2430000000	47
109.2730000000	46
109.3030000000	53
109.3330000000	60
109.3630000000	64
109.3930000000	53
109.4230000000	38
109.4530000000	49
109.4830000000	28
109.5130000000	45
109.5430000000	46
109.5730000000	35
109.6030000000	46
109.6330000000	44
109.6630000000	45
109.6930000000	34
109.7230000000	36
109.7530000000	40
109.7830000000	45
109.8130000000	52
109.8430000000	30
109.8730000000	53
109.9030000000	35
109.9330000000	33
109.9630000000	42
109.9930000000	34
110.0230000000	29
110.0530000000	34
110.0830000000	37
110.1130000000	37
110.1430000000	27
110.1730000000	31
110.2030000000	34
110.2330000000	32
110.2630000000	40
110.2930000000	30
110.3230000000	32
110.3530000000	46
110.3830000000	45
110.4130000000	43
110.4430000000	39
110.4730000000	46
110.5030000000	39
110.5330000000	41
110.5630000000	33
110.5930000000	42
110.6230000000	32
110.6530000000	36
110.6830000000	40
110.7130000000	33
110.7430000000	34
110.7730000000	44
110.8030000000	37
110.8330000000	33
110.8630000000	33
110.8930000000	39
110.9230000000	37
110.9530000000	45
110.9830000000	41
111.0130000000	43
111.0430000000	34
111.0730000000	34
111.1030000000	46
111.1330000000	42
111.1630000000	30
111.1930000000	31
111.2230000000	41
111.2530000000	38
111.2830000000	47
111.3130000000	40
111.3430000000	43
111.3730000000	43
111.4030000000	46
111.4330000000	41
111.4630000000	42
111.4930000000	45
111.5230000000	34
111.5530000000	37
111.5830000000	33
111.6130000000	42
111.6430000000	39
111.6730000000	34
111.7030000000	38
111.7330000000	40
111.7630000000	38
111.7930000000	32
111.8230000000	46
111.8530000000	42
111.8830000000	45
111.9130000000	44
111.9430000000	32
111.9730000000	51
112.0030000000	43
112.0330000000	34
112.0630000000	38
112.0930000000	37
112.1230000000	29
112.1530000000	29
112.1830000000	37
112.2130000000	38
112.2430000000	47
112.2730000000	32
112.3030000000	34
112.3330000000	42
112.3630000000	40
112.3930000000	48
112.4230000000	34
112.4530000000	38
112.4830000000	33
112.5130000000	45
112.5430000000	31
112.5730000000	49
112.6030000000	48
112.6330000000	36
112.6630000000	31
112.6930000000	31
112.7230000000	33
112.7530000000	40
112.7830000000	45
112.8130000000	39
112.8430000000	32
112.8730000000	34
112.9030000000	42
112.9330000000	34
112.9630000000	37
112.9930000000	44
113.0230000000	44
113.0530000000	38
113.0830000000	40
113.1130000000	43
113.1430000000	38
113.1730000000	41
113.2030000000	40
113.2330000000	42
113.2630000000	39
113.2930000000	55
113.3230000000	38
113.3530000000	35
113.3830000000	41
113.4130000000	34
113.4430000000	27
113.4730000000	35
113.5030000000	39
113.5330000000	38
113.5630000000	44
113.5930000000	31
113.6230000000	45
113.6530000000	41
113.6830000000	39
113.7130000000	30
113.7430000000	37
113.7730000000	36
113.8030000000	44
113.8330000000	38
113.8630000000	38
113.8930000000	42
113.9230000000	33
113.9530000000	36
113.9830000000	34
114.0130000000	34
114.0430000000	32
114.0730000000	39
114.1030000000	40
114.1330000000	37
114.1630000000	45
114.1930000000	31
114.2230000000	39
114.2530000000	44
114.2830000000	37
114.3130000000	32
114.3430000000	31
114.3730000000	42
114.4030000000	42
114.4330000000	31
114.4630000000	1
114.4930000000	1
114.5230000000	1
114.5530000000	1
114.5830000000	1
