0.3130000000	1
0.3430000000	1
0.3730000000	1
0.4030000000	1
0.4330000000	1
0.4630000000	1
0.4930000000	1
0.5230000000	1
0.5530000000	1
0.5830000000	1
0.6130000000	1
0.6430000000	1
0.6730000000	1
0.7030000000	1
0.7330000000	1
0.7630000000	1
0.7930000000	2
0.8230000000	1
0.8530000000	1
0.8830000000	1
0.9130000000	1
0.9430000000	1
0.9730000000	1
1.0030000000	1
1.0330000000	1
1.0630000000	1
1.0930000000	1
1.1230000000	1
1.1530000000	1
1.1830000000	1
1.2130000000	1
1.2430000000	1
1.2730000000	1
1.3030000000	1
1.3330000000	1
1.3630000000	1
1.3930000000	2
1.4230000000	1
1.4530000000	2
1.4830000000	1
1.5130000000	1
1.5430000000	2
1.5730000000	1
1.6030000000	2
1.6330000000	3
1.6630000000	2
1.6930000000	1
1.7230000000	2
1.7530000000	1
1.7830000000	1
1.8130000000	1
1.8430000000	2
1.8730000000	1
1.9030000000	1
1.9330000000	2
1.9630000000	3
1.9930000000	1
2.0230000000	1
2.0530000000	1
2.0830000000	2
2.1130000000	1
2.1430000000	1
2.1730000000	1
2.2030000000	1
2.2330000000	1
2.2630000000	1
2.2930000000	1
2.3230000000	2
2.3530000000	1
2.3830000000	1
2.4130000000	3
2.4430000000	2
2.4730000000	2
2.5030000000	2
2.5330000000	1
2.5630000000	1
2.5930000000	1
2.6230000000	1
2.6530000000	1
2.6830000000	1
2.7130000000	1
2.7430000000	1
2.7730000000	2
2.8030000000	1
2.8330000000	2
2.8630000000	1
2.8930000000	1
2.9230000000	1
2.9530000000	2
2.9830000000	3
3.0130000000	3
3.0430000000	2
3.0730000000	1
3.1030000000	2
3.1330000000	1
3.1630000000	1
3.1930000000	2
3.2230000000	2
3.2530000000	4
3.2830000000	2
3.3130000000	3
3.3430000000	1
3.3730000000	2
3.4030000000	1
3.4330000000	3
3.4630000000	2
3.4930000000	2
3.5230000000	3
3.5530000000	1
3.5830000000	2
3.6130000000	2
3.6430000000	1
3.6730000000	3
3.7030000000	3
3.7330000000	3
3.7630000000	2
3.7930000000	1
3.8230000000	3
3.8530000000	3
3.8830000000	1
3.9130000000	3
3.9430000000	2
3.9730000000	2
4.0030000000	3
4.0330000000	1
4.0630000000	1
4.0930000000	4
4.1230000000	5
4.1530000000	1
4.1830000000	3
4.2130000000	4
4.2430000000	4
4.2730000000	3
4.3030000000	2
4.3330000000	2
4.3630000000	4
4.3930000000	4
4.4230000000	6
4.4530000000	11
4.4830000000	14
4.5130000000	26
4.5430000000	37
4.5730000000	49
4.6030000000	77
4.6330000000	110
4.6630000000	101
4.6930000000	110
4.7230000000	120
4.7530000000	142
4.7830000000	143
4.8130000000	139
4.8430000000	129
4.8730000000	150
4.9030000000	118
4.9330000000	133
4.9630000000	142
4.9930000000	140
5.0230000000	124
5.0530000000	148
5.0830000000	164
5.1130000000	148
5.1430000000	127
5.1730000000	142
5.2030000000	127
5.2330000000	134
5.2630000000	130
5.2930000000	137
5.3230000000	143
5.3530000000	134
5.3830000000	153
5.4130000000	128
5.4430000000	149
5.4730000000	137
5.5030000000	138
5.5330000000	125
5.5630000000	158
5.5930000000	179
5.6230000000	139
5.6530000000	172
5.6830000000	137
5.7130000000	128
5.7430000000	146
5.7730000000	127
5.8030000000	164
5.8330000000	160
5.8630000000	132
5.8930000000	143
5.9230000000	139
5.9530000000	168
5.9830000000	129
6.0130000000	149
6.0430000000	146
6.0730000000	141
6.1030000000	127
6.1330000000	146
6.1630000000	159
6.1930000000	130
6.2230000000	130
6.2530000000	141
6.2830000000	136
6.3130000000	147
6.3430000000	148
6.3730000000	147
6.4030000000	158
6.4330000000	159
6.4630000000	136
6.4930000000	156
6.5230000000	124
6.5530000000	151
6.5830000000	161
6.6130000000	156
6.6430000000	150
6.6730000000	160
6.7030000000	133
6.7330000000	140
6.7630000000	147
6.7930000000	155
6.8230000000	130
6.8530000000	140
6.8830000000	146
6.9130000000	145
6.9430000000	158
6.9730000000	155
7.0030000000	147
7.0330000000	143
7.0630000000	141
7.0930000000	139
7.1230000000	152
7.1530000000	140
7.1830000000	150
7.2130000000	147
7.2430000000	162
7.2730000000	149
7.3030000000	150
7.3330000000	164
7.3630000000	141
7.3930000000	132
7.4230000000	146
7.4530000000	142
7.4830000000	143
7.5130000000	127
7.5430000000	132
7.5730000000	152
7.6030000000	163
7.6330000000	139
7.6630000000	130
7.6930000000	124
7.7230000000	143
7.7530000000	142
7.7830000000	139
7.8130000000	149
7.8430000000	151
7.8730000000	155
7.9030000000	147
7.9330000000	133
7.9630000000	127
7.9930000000	133
8.0230000000	117
8.0530000000	150
8.0830000000	166
8.1130000000	143
8.1430000000	132
8.1730000000	152
8.2030000000	160
8.2330000000	148
8.2630000000	137
8.2930000000	137
8.3230000000	142
8.3530000000	152
8.3830000000	150
8.4130000000	143
8.4430000000	165
8.4730000000	145
8.5030000000	145
8.5330000000	152
8.5630000000	118
8.5930000000	162
8.6230000000	146
8.6530000000	135
8.6830000000	133
8.7130000000	124
8.7430000000	135
8.7730000000	151
8.8030000000	166
8.8330000000	140
8.8630000000	137
8.8930000000	142
8.9230000000	150
8.9530000000	147
8.9830000000	140
9.0130000000	138
9.0430000000	151
9.0730000000	164
9.1030000000	142
9.1330000000	141
9.1630000000	146
9.1930000000	117
9.2230000000	142
9.2530000000	149
9.2830000000	145
9.3130000000	157
9.3430000000	128
9.3730000000	142
9.4030000000	150
9.4330000000	136
9.4630000000	137
9.4930000000	150
9.5230000000	155
9.5530000000	132
9.5830000000	159
9.6130000000	145
9.6430000000	153
9.6730000000	143
9.7030000000	161
9.7330000000	144
9.7630000000	155
9.7930000000	149
9.8230000000	144
9.8530000000	149
9.8830000000	139
9.9130000000	159
9.9430000000	153
9.9730000000	159
10.0030000000	147
10.0330000000	130
10.0630000000	129
10.0930000000	135
10.1230000000	146
10.1530000000	158
10.1830000000	157
10.2130000000	139
10.2430000000	135
10.2730000000	136
10.3030000000	146
10.3330000000	161
10.3630000000	145
10.3930000000	169
10.4230000000	149
10.4530000000	135
10.4830000000	159
10.5130000000	134
10.5430000000	151
10.5730000000	142
10.6030000000	155
10.6330000000	132
10.6630000000	149
10.6930000000	145
10.7230000000	160
10.7530000000	152
10.7830000000	169
10.8130000000	171
10.8430000000	159
10.8730000000	151
10.9030000000	153
10.9330000000	142
10.9630000000	165
10.9930000000	130
11.0230000000	150
11.0530000000	158
11.0830000000	141
11.1130000000	151
11.1430000000	116
11.1730000000	144
11.2030000000	145
11.2330000000	161
11.2630000000	164
11.2930000000	152
11.3230000000	162
11.3530000000	158
11.3830000000	146
11.4130000000	128
11.4430000000	144
11.4730000000	142
11.5030000000	137
11.5330000000	162
11.5630000000	162
11.5930000000	148
11.6230000000	134
11.6530000000	156
11.6830000000	137
11.7130000000	133
11.7430000000	133
11.7730000000	149
11.8030000000	157
11.8330000000	149
11.8630000000	135
11.8930000000	139
11.9230000000	149
11.9530000000	133
11.9830000000	135
12.0130000000	122
12.0430000000	154
12.0730000000	157
12.1030000000	151
12.1330000000	159
12.1630000000	141
12.1930000000	152
12.2230000000	132
12.2530000000	149
12.2830000000	151
12.3130000000	157
12.3430000000	142
12.3730000000	129
12.4030000000	147
12.4330000000	145
12.4630000000	163
12.4930000000	157
12.5230000000	151
12.5530000000	164
12.5830000000	147
12.6130000000	130
12.6430000000	137
12.6730000000	151
12.7030000000	146
12.7330000000	144
12.7630000000	141
12.7930000000	152
12.8230000000	138
12.8530000000	145
12.8830000000	158
12.9130000000	135
12.9430000000	137
12.9730000000	146
13.0030000000	138
13.0330000000	146
13.0630000000	154
13.0930000000	147
13.1230000000	146
13.1530000000	142
13.1830000000	136
13.2130000000	159
13.2430000000	150
13.2730000000	130
13.3030000000	141
13.3330000000	155
13.3630000000	142
13.3930000000	148
13.4230000000	132
13.4530000000	139
13.4830000000	142
13.5130000000	133
13.5430000000	143
13.5730000000	156
13.6030000000	146
13.6330000000	166
13.6630000000	150
13.6930000000	144
13.7230000000	142
13.7530000000	145
13.7830000000	131
13.8130000000	130
13.8430000000	141
13.8730000000	131
13.9030000000	132
13.9330000000	135
13.9630000000	128
13.9930000000	125
14.0230000000	144
14.0530000000	168
14.0830000000	157
14.1130000000	145
14.1430000000	161
14.1730000000	123
14.2030000000	145
14.2330000000	149
14.2630000000	148
14.2930000000	145
14.3230000000	139
14.3530000000	137
14.3830000000	154
14.4130000000	131
14.4430000000	129
14.4730000000	141
14.5030000000	128
14.5330000000	160
14.5630000000	153
14.5930000000	141
14.6230000000	158
14.6530000000	122
14.6830000000	133
14.7130000000	141
14.7430000000	148
14.7730000000	162
14.8030000000	146
14.8330000000	138
14.8630000000	150
14.8930000000	147
14.9230000000	142
14.9530000000	161
14.9830000000	142
15.0130000000	171
15.0430000000	155
15.0730000000	144
15.1030000000	172
15.1330000000	147
15.1630000000	153
15.1930000000	163
15.2230000000	135
15.2530000000	149
15.2830000000	163
15.3130000000	154
15.3430000000	156
15.3730000000	155
15.4030000000	132
15.4330000000	157
15.4630000000	150
15.4930000000	144
15.5230000000	127
15.5530000000	137
15.5830000000	128
15.6130000000	120
15.6430000000	145
15.6730000000	171
15.7030000000	149
15.7330000000	143
15.7630000000	129
15.7930000000	158
15.8230000000	152
15.8530000000	149
15.8830000000	135
15.9130000000	155
15.9430000000	145
15.9730000000	143
16.0030000000	141
16.0330000000	134
16.0630000000	137
16.0930000000	158
16.1230000000	158
16.1530000000	152
16.1830000000	152
16.2130000000	142
16.2430000000	152
16.2730000000	127
16.3030000000	134
16.3330000000	159
16.3630000000	131
16.3930000000	166
16.4230000000	153
16.4530000000	134
16.4830000000	143
16.5130000000	152
16.5430000000	125
16.5730000000	142
16.6030000000	140
16.6330000000	140
16.6630000000	137
16.6930000000	130
16.7230000000	124
16.7530000000	148
16.7830000000	169
16.8130000000	135
16.8430000000	139
16.8730000000	141
16.9030000000	145
16.9330000000	139
16.9630000000	142
16.9930000000	153
17.0230000000	162
17.0530000000	106
17.0830000000	127
17.1130000000	152
17.1430000000	144
17.1730000000	135
17.2030000000	145
17.2330000000	156
17.2630000000	155
17.2930000000	148
17.3230000000	136
17.3530000000	139
17.3830000000	151
17.4130000000	155
17.4430000000	141
17.4730000000	147
17.5030000000	153
17.5330000000	138
17.5630000000	141
17.5930000000	150
17.6230000000	142
17.6530000000	136
17.6830000000	162
17.7130000000	155
17.7430000000	135
17.7730000000	136
17.8030000000	137
17.8330000000	133
17.8630000000	137
17.8930000000	145
17.9230000000	131
17.9530000000	147
17.9830000000	158
18.0130000000	136
18.0430000000	138
18.0730000000	145
18.1030000000	141
18.1330000000	137
18.1630000000	136
18.1930000000	133
18.2230000000	138
18.2530000000	133
18.2830000000	143
18.3130000000	149
18.3430000000	164
18.3730000000	148
18.4030000000	139
18.4330000000	149
18.4630000000	155
18.4930000000	139
18.5230000000	131
18.5530000000	132
18.5830000000	126
18.6130000000	142
18.6430000000	140
18.6730000000	135
18.7030000000	149
18.7330000000	160
18.7630000000	141
18.7930000000	151
18.8230000000	121
18.8530000000	151
18.8830000000	162
18.9130000000	155
18.9430000000	137
18.9730000000	146
19.0030000000	162
19.0330000000	169
19.0630000000	140
19.0930000000	151
19.1230000000	153
19.1530000000	139
19.1830000000	137
19.2130000000	141
19.2430000000	156
19.2730000000	130
19.3030000000	143
19.3330000000	152
19.3630000000	152
19.3930000000	144
19.4230000000	148
19.4530000000	147
19.4830000000	147
19.5130000000	151
19.5430000000	164
19.5730000000	138
19.6030000000	132
19.6330000000	152
19.6630000000	120
19.6930000000	158
19.7230000000	150
19.7530000000	123
19.7830000000	152
19.8130000000	148
19.8430000000	151
19.8730000000	157
19.9030000000	144
19.9330000000	169
19.9630000000	151
19.9930000000	161
20.0230000000	136
20.0530000000	180
20.0830000000	171
20.1130000000	135
20.1430000000	149
20.1730000000	162
20.2030000000	149
20.2330000000	144
20.2630000000	145
20.2930000000	150
20.3230000000	163
20.3530000000	127
20.3830000000	166
20.4130000000	163
20.4430000000	177
20.4730000000	159
20.5030000000	166
20.5330000000	143
20.5630000000	144
20.5930000000	186
20.6230000000	190
20.6530000000	194
20.6830000000	253
20.7130000000	289
20.7430000000	412
20.7730000000	502
20.8030000000	656
20.8330000000	849
20.8630000000	951
20.8930000000	958
20.9230000000	795
20.9530000000	582
20.9830000000	394
21.0130000000	317
21.0430000000	234
21.0730000000	187
21.1030000000	176
21.1330000000	188
21.1630000000	163
21.1930000000	163
21.2230000000	154
21.2530000000	165
21.2830000000	152
21.3130000000	172
21.3430000000	134
21.3730000000	139
21.4030000000	137
21.4330000000	133
21.4630000000	149
21.4930000000	147
21.5230000000	181
21.5530000000	185
21.5830000000	134
21.6130000000	172
21.6430000000	167
21.6730000000	167
21.7030000000	161
21.7330000000	157
21.7630000000	157
21.7930000000	169
21.8230000000	156
21.8530000000	158
21.8830000000	155
21.9130000000	152
21.9430000000	161
21.9730000000	167
22.0030000000	175
22.0330000000	173
22.0630000000	168
22.0930000000	173
22.1230000000	165
22.1530000000	179
22.1830000000	172
22.2130000000	156
22.2430000000	176
22.2730000000	161
22.3030000000	157
22.3330000000	151
22.3630000000	174
22.3930000000	173
22.4230000000	161
22.4530000000	165
22.4830000000	170
22.5130000000	161
22.5430000000	166
22.5730000000	164
22.6030000000	152
22.6330000000	160
22.6630000000	169
22.6930000000	175
22.7230000000	151
22.7530000000	169
22.7830000000	183
22.8130000000	152
22.8430000000	183
22.8730000000	161
22.9030000000	162
22.9330000000	190
22.9630000000	180
22.9930000000	171
23.0230000000	183
23.0530000000	158
23.0830000000	167
23.1130000000	155
23.1430000000	173
23.1730000000	149
23.2030000000	175
23.2330000000	155
23.2630000000	173
23.2930000000	147
23.3230000000	177
23.3530000000	179
23.3830000000	153
23.4130000000	176
23.4430000000	170
23.4730000000	178
23.5030000000	171
23.5330000000	150
23.5630000000	166
23.5930000000	158
23.6230000000	151
23.6530000000	170
23.6830000000	170
23.7130000000	160
23.7430000000	167
23.7730000000	144
23.8030000000	160
23.8330000000	153
23.8630000000	165
23.8930000000	174
23.9230000000	180
23.9530000000	167
23.9830000000	173
24.0130000000	173
24.0430000000	173
24.0730000000	146
24.1030000000	139
24.1330000000	172
24.1630000000	171
24.1930000000	152
24.2230000000	164
24.2530000000	190
24.2830000000	168
24.3130000000	150
24.3430000000	184
24.3730000000	178
24.4030000000	154
24.4330000000	157
24.4630000000	151
24.4930000000	160
24.5230000000	148
24.5530000000	167
24.5830000000	176
24.6130000000	137
24.6430000000	159
24.6730000000	166
24.7030000000	161
24.7330000000	162
24.7630000000	171
24.7930000000	167
24.8230000000	161
24.8530000000	166
24.8830000000	169
24.9130000000	155
24.9430000000	164
24.9730000000	164
25.0030000000	169
25.0330000000	163
25.0630000000	183
25.0930000000	149
25.1230000000	156
25.1530000000	181
25.1830000000	172
25.2130000000	156
25.2430000000	156
25.2730000000	159
25.3030000000	157
25.3330000000	156
25.3630000000	149
25.3930000000	183
25.4230000000	158
25.4530000000	187
25.4830000000	185
25.5130000000	174
25.5430000000	155
25.5730000000	168
25.6030000000	163
25.6330000000	199
25.6630000000	167
25.6930000000	165
25.7230000000	145
25.7530000000	176
25.7830000000	179
25.8130000000	249
25.8430000000	267
25.8730000000	415
25.9030000000	524
25.9330000000	738
25.9630000000	1051
25.9930000000	1355
26.0230000000	1485
26.0530000000	1302
26.0830000000	1073
26.1130000000	745
26.1430000000	530
26.1730000000	382
26.2030000000	288
26.2330000000	249
26.2630000000	188
26.2930000000	186
26.3230000000	183
26.3530000000	172
26.3830000000	167
26.4130000000	164
26.4430000000	162
26.4730000000	173
26.5030000000	157
26.5330000000	144
26.5630000000	134
26.5930000000	190
26.6230000000	156
26.6530000000	138
26.6830000000	150
26.7130000000	143
26.7430000000	136
26.7730000000	133
26.8030000000	152
26.8330000000	150
26.8630000000	137
26.8930000000	153
26.9230000000	144
26.9530000000	133
26.9830000000	151
27.0130000000	158
27.0430000000	171
27.0730000000	157
27.1030000000	128
27.1330000000	150
27.1630000000	156
27.1930000000	141
27.2230000000	147
27.2530000000	131
27.2830000000	144
27.3130000000	165
27.3430000000	164
27.3730000000	129
27.4030000000	128
27.4330000000	149
27.4630000000	148
27.4930000000	134
27.5230000000	148
27.5530000000	136
27.5830000000	123
27.6130000000	145
27.6430000000	139
27.6730000000	148
27.7030000000	169
27.7330000000	157
27.7630000000	150
27.7930000000	133
27.8230000000	152
27.8530000000	130
27.8830000000	152
27.9130000000	141
27.9430000000	166
27.9730000000	147
28.0030000000	169
28.0330000000	178
28.0630000000	155
28.0930000000	190
28.1230000000	180
28.1530000000	235
28.1830000000	250
28.2130000000	282
28.2430000000	210
28.2730000000	200
28.3030000000	197
28.3330000000	162
28.3630000000	145
28.3930000000	119
28.4230000000	147
28.4530000000	155
28.4830000000	141
28.5130000000	146
28.5430000000	147
28.5730000000	144
28.6030000000	140
28.6330000000	133
28.6630000000	130
28.6930000000	136
28.7230000000	125
28.7530000000	136
28.7830000000	136
28.8130000000	109
28.8430000000	120
28.8730000000	140
28.9030000000	127
28.9330000000	125
28.9630000000	128
28.9930000000	135
29.0230000000	135
29.0530000000	142
29.0830000000	123
29.1130000000	117
29.1430000000	124
29.1730000000	131
29.2030000000	122
29.2330000000	127
29.2630000000	122
29.2930000000	121
29.3230000000	113
29.3530000000	140
29.3830000000	130
29.4130000000	132
29.4430000000	101
29.4730000000	117
29.5030000000	128
29.5330000000	123
29.5630000000	130
29.5930000000	108
29.6230000000	117
29.6530000000	143
29.6830000000	110
29.7130000000	135
29.7430000000	154
29.7730000000	131
29.8030000000	122
29.8330000000	122
29.8630000000	136
29.8930000000	110
29.9230000000	126
29.9530000000	125
29.9830000000	116
30.0130000000	122
30.0430000000	121
30.0730000000	102
30.1030000000	113
30.1330000000	124
30.1630000000	123
30.1930000000	137
30.2230000000	126
30.2530000000	139
30.2830000000	117
30.3130000000	105
30.3430000000	119
30.3730000000	130
30.4030000000	120
30.4330000000	113
30.4630000000	120
30.4930000000	146
30.5230000000	119
30.5530000000	94
30.5830000000	113
30.6130000000	125
30.6430000000	119
30.6730000000	137
30.7030000000	117
30.7330000000	92
30.7630000000	123
30.7930000000	129
30.8230000000	107
30.8530000000	102
30.8830000000	124
30.9130000000	128
30.9430000000	106
30.9730000000	116
31.0030000000	92
31.0330000000	105
31.0630000000	122
31.0930000000	103
31.1230000000	130
31.1530000000	109
31.1830000000	121
31.2130000000	135
31.2430000000	129
31.2730000000	110
31.3030000000	122
31.3330000000	120
31.3630000000	119
31.3930000000	113
31.4230000000	112
31.4530000000	122
31.4830000000	105
31.5130000000	132
31.5430000000	120
31.5730000000	99
31.6030000000	109
31.6330000000	114
31.6630000000	118
31.6930000000	104
31.7230000000	108
31.7530000000	115
31.7830000000	104
31.8130000000	116
31.8430000000	129
31.8730000000	116
31.9030000000	109
31.9330000000	108
31.9630000000	103
31.9930000000	98
32.0230000000	106
32.0530000000	79
32.0830000000	119
32.1130000000	109
32.1430000000	97
32.1730000000	107
32.2030000000	119
32.2330000000	95
32.2630000000	109
32.2930000000	105
32.3230000000	95
32.3530000000	107
32.3830000000	105
32.4130000000	108
32.4430000000	87
32.4730000000	86
32.5030000000	108
32.5330000000	108
32.5630000000	99
32.5930000000	116
32.6230000000	106
32.6530000000	102
32.6830000000	97
32.7130000000	98
32.7430000000	114
32.7730000000	108
32.8030000000	107
32.8330000000	117
32.8630000000	102
32.8930000000	109
32.9230000000	114
32.9530000000	112
32.9830000000	108
33.0130000000	110
33.0430000000	118
33.0730000000	116
33.1030000000	125
33.1330000000	124
33.1630000000	116
33.1930000000	131
33.2230000000	133
33.2530000000	141
33.2830000000	138
33.3130000000	144
33.3430000000	193
33.3730000000	269
33.4030000000	314
33.4330000000	456
33.4630000000	732
33.4930000000	1206
33.5230000000	1767
33.5530000000	2536
33.5830000000	3290
33.6130000000	3795
33.6430000000	3884
33.6730000000	3221
33.7030000000	2119
33.7330000000	1241
33.7630000000	768
33.7930000000	486
33.8230000000	303
33.8530000000	229
33.8830000000	191
33.9130000000	172
33.9430000000	148
33.9730000000	125
34.0030000000	115
34.0330000000	120
34.0630000000	110
34.0930000000	118
34.1230000000	127
34.1530000000	121
34.1830000000	115
34.2130000000	109
34.2430000000	116
34.2730000000	99
34.3030000000	104
34.3330000000	104
34.3630000000	105
34.3930000000	104
34.4230000000	109
34.4530000000	96
34.4830000000	102
34.5130000000	89
34.5430000000	99
34.5730000000	94
34.6030000000	83
34.6330000000	92
34.6630000000	101
34.6930000000	103
34.7230000000	108
34.7530000000	92
34.7830000000	94
34.8130000000	94
34.8430000000	110
34.8730000000	96
34.9030000000	86
34.9330000000	90
34.9630000000	98
34.9930000000	89
35.0230000000	93
35.0530000000	94
35.0830000000	100
35.1130000000	99
35.1430000000	88
35.1730000000	98
35.2030000000	95
35.2330000000	97
35.2630000000	92
35.2930000000	90
35.3230000000	98
35.3530000000	95
35.3830000000	102
35.4130000000	101
35.4430000000	89
35.4730000000	93
35.5030000000	92
35.5330000000	76
35.5630000000	89
35.5930000000	77
35.6230000000	87
35.6530000000	97
35.6830000000	105
35.7130000000	87
35.7430000000	84
35.7730000000	94
35.8030000000	99
35.8330000000	89
35.8630000000	96
35.8930000000	86
35.9230000000	86
35.9530000000	105
35.9830000000	104
36.0130000000	102
36.0430000000	129
36.0730000000	160
36.1030000000	205
36.1330000000	232
36.1630000000	269
36.1930000000	304
36.2230000000	284
36.2530000000	262
36.2830000000	225
36.3130000000	185
36.3430000000	132
36.3730000000	118
36.4030000000	103
36.4330000000	113
36.4630000000	98
36.4930000000	93
36.5230000000	86
36.5530000000	101
36.5830000000	89
36.6130000000	94
36.6430000000	98
36.6730000000	81
36.7030000000	90
36.7330000000	83
36.7630000000	86
36.7930000000	85
36.8230000000	85
36.8530000000	81
36.8830000000	92
36.9130000000	95
36.9430000000	96
36.9730000000	86
37.0030000000	91
37.0330000000	96
37.0630000000	90
37.0930000000	84
37.1230000000	95
37.1530000000	85
37.1830000000	83
37.2130000000	83
37.2430000000	101
37.2730000000	99
37.3030000000	106
37.3330000000	97
37.3630000000	92
37.3930000000	86
37.4230000000	90
37.4530000000	99
37.4830000000	88
37.5130000000	104
37.5430000000	87
37.5730000000	89
37.6030000000	93
37.6330000000	113
37.6630000000	125
37.6930000000	113
37.7230000000	115
37.7530000000	141
37.7830000000	142
37.8130000000	173
37.8430000000	240
37.8730000000	341
37.9030000000	499
37.9330000000	734
37.9630000000	1132
37.9930000000	1740
38.0230000000	2372
38.0530000000	2769
38.0830000000	2799
38.1130000000	2461
38.1430000000	1931
38.1730000000	1433
38.2030000000	943
38.2330000000	571
38.2630000000	361
38.2930000000	250
38.3230000000	217
38.3530000000	164
38.3830000000	118
38.4130000000	138
38.4430000000	145
38.4730000000	121
38.5030000000	101
38.5330000000	96
38.5630000000	112
38.5930000000	117
38.6230000000	108
38.6530000000	101
38.6830000000	92
38.7130000000	91
38.7430000000	96
38.7730000000	88
38.8030000000	83
38.8330000000	95
38.8630000000	96
38.8930000000	85
38.9230000000	85
38.9530000000	86
38.9830000000	82
39.0130000000	82
39.0430000000	90
39.0730000000	94
39.1030000000	99
39.1330000000	101
39.1630000000	83
39.1930000000	95
39.2230000000	100
39.2530000000	108
39.2830000000	82
39.3130000000	87
39.3430000000	73
39.3730000000	105
39.4030000000	63
39.4330000000	69
39.4630000000	82
39.4930000000	82
39.5230000000	79
39.5530000000	86
39.5830000000	75
39.6130000000	88
39.6430000000	94
39.6730000000	87
39.7030000000	79
39.7330000000	76
39.7630000000	86
39.7930000000	85
39.8230000000	79
39.8530000000	83
39.8830000000	82
39.9130000000	72
39.9430000000	82
39.9730000000	84
40.0030000000	84
40.0330000000	73
40.0630000000	66
40.0930000000	77
40.1230000000	77
40.1530000000	91
40.1830000000	71
40.2130000000	79
40.2430000000	74
40.2730000000	74
40.3030000000	77
40.3330000000	76
40.3630000000	69
40.3930000000	77
40.4230000000	70
40.4530000000	82
40.4830000000	91
40.5130000000	83
40.5430000000	70
40.5730000000	84
40.6030000000	71
40.6330000000	84
40.6630000000	79
40.6930000000	86
40.7230000000	74
40.7530000000	78
40.7830000000	73
40.8130000000	85
40.8430000000	85
40.8730000000	68
40.9030000000	77
40.9330000000	80
40.9630000000	78
40.9930000000	65
41.0230000000	88
41.0530000000	83
41.0830000000	79
41.1130000000	81
41.1430000000	75
41.1730000000	69
41.2030000000	93
41.2330000000	76
41.2630000000	80
41.2930000000	85
41.3230000000	86
41.3530000000	87
41.3830000000	80
41.4130000000	86
41.4430000000	80
41.4730000000	88
41.5030000000	86
41.5330000000	79
41.5630000000	73
41.5930000000	78
41.6230000000	79
41.6530000000	86
41.6830000000	66
41.7130000000	85
41.7430000000	75
41.7730000000	84
41.8030000000	77
41.8330000000	88
41.8630000000	82
41.8930000000	88
41.9230000000	81
41.9530000000	83
41.9830000000	100
42.0130000000	104
42.0430000000	143
42.0730000000	205
42.1030000000	256
42.1330000000	289
42.1630000000	264
42.1930000000	242
42.2230000000	226
42.2530000000	191
42.2830000000	158
42.3130000000	121
42.3430000000	108
42.3730000000	93
42.4030000000	103
42.4330000000	115
42.4630000000	91
42.4930000000	88
42.5230000000	94
42.5530000000	88
42.5830000000	80
42.6130000000	74
42.6430000000	78
42.6730000000	68
42.7030000000	63
42.7330000000	76
42.7630000000	67
42.7930000000	59
42.8230000000	74
42.8530000000	72
42.8830000000	77
42.9130000000	85
42.9430000000	58
42.9730000000	93
43.0030000000	70
43.0330000000	68
43.0630000000	72
43.0930000000	89
43.1230000000	80
43.1530000000	65
43.1830000000	79
43.2130000000	62
43.2430000000	72
43.2730000000	75
43.3030000000	76
43.3330000000	62
43.3630000000	70
43.3930000000	70
43.4230000000	63
43.4530000000	64
43.4830000000	86
43.5130000000	79
43.5430000000	89
43.5730000000	102
43.6030000000	79
43.6330000000	97
43.6630000000	125
43.6930000000	142
43.7230000000	164
43.7530000000	201
43.7830000000	218
43.8130000000	227
43.8430000000	234
43.8730000000	200
43.9030000000	195
43.9330000000	144
43.9630000000	113
43.9930000000	94
44.0230000000	83
44.0530000000	84
44.0830000000	69
44.1130000000	77
44.1430000000	82
44.1730000000	68
44.2030000000	74
44.2330000000	51
44.2630000000	84
44.2930000000	76
44.3230000000	79
44.3530000000	66
44.3830000000	63
44.4130000000	77
44.4430000000	62
44.4730000000	55
44.5030000000	72
44.5330000000	61
44.5630000000	70
44.5930000000	73
44.6230000000	70
44.6530000000	73
44.6830000000	69
44.7130000000	66
44.7430000000	74
44.7730000000	63
44.8030000000	72
44.8330000000	58
44.8630000000	69
44.8930000000	61
44.9230000000	58
44.9530000000	55
44.9830000000	71
45.0130000000	66
45.0430000000	59
45.0730000000	54
45.1030000000	65
45.1330000000	60
45.1630000000	67
45.1930000000	69
45.2230000000	80
45.2530000000	76
45.2830000000	61
45.3130000000	64
45.3430000000	68
45.3730000000	73
45.4030000000	73
45.4330000000	68
45.4630000000	69
45.4930000000	54
45.5230000000	66
45.5530000000	62
45.5830000000	47
45.6130000000	56
45.6430000000	54
45.6730000000	62
45.7030000000	55
45.7330000000	60
45.7630000000	92
45.7930000000	69
45.8230000000	57
45.8530000000	48
45.8830000000	78
45.9130000000	68
45.9430000000	49
45.9730000000	50
46.0030000000	71
46.0330000000	82
46.0630000000	68
46.0930000000	61
46.1230000000	72
46.1530000000	69
46.1830000000	75
46.2130000000	70
46.2430000000	84
46.2730000000	124
46.3030000000	100
46.3330000000	152
46.3630000000	182
46.3930000000	251
46.4230000000	339
46.4530000000	525
46.4830000000	687
46.5130000000	789
46.5430000000	799
46.5730000000	755
46.6030000000	652
46.6330000000	603
46.6630000000	515
46.6930000000	472
46.7230000000	518
46.7530000000	551
46.7830000000	648
46.8130000000	675
46.8430000000	624
46.8730000000	530
46.9030000000	448
46.9330000000	363
46.9630000000	253
46.9930000000	200
47.0230000000	149
47.0530000000	137
47.0830000000	88
47.1130000000	71
47.1430000000	72
47.1730000000	73
47.2030000000	78
47.2330000000	76
47.2630000000	66
47.2930000000	57
47.3230000000	69
47.3530000000	69
47.3830000000	72
47.4130000000	65
47.4430000000	62
47.4730000000	64
47.5030000000	79
47.5330000000	70
47.5630000000	50
47.5930000000	59
47.6230000000	67
47.6530000000	58
47.6830000000	67
47.7130000000	50
47.7430000000	68
47.7730000000	60
47.8030000000	65
47.8330000000	72
47.8630000000	58
47.8930000000	48
47.9230000000	47
47.9530000000	56
47.9830000000	53
48.0130000000	54
48.0430000000	49
48.0730000000	46
48.1030000000	67
48.1330000000	63
48.1630000000	56
48.1930000000	62
48.2230000000	65
48.2530000000	77
48.2830000000	57
48.3130000000	52
48.3430000000	48
48.3730000000	48
48.4030000000	49
48.4330000000	50
48.4630000000	56
48.4930000000	52
48.5230000000	53
48.5530000000	70
48.5830000000	61
48.6130000000	54
48.6430000000	51
48.6730000000	48
48.7030000000	53
48.7330000000	61
48.7630000000	59
48.7930000000	49
48.8230000000	53
48.8530000000	55
48.8830000000	55
48.9130000000	58
48.9430000000	58
48.9730000000	53
49.0030000000	53
49.0330000000	58
49.0630000000	48
49.0930000000	44
49.1230000000	48
49.1530000000	47
49.1830000000	63
49.2130000000	54
49.2430000000	56
49.2730000000	45
49.3030000000	52
49.3330000000	46
49.3630000000	42
49.3930000000	43
49.4230000000	54
49.4530000000	63
49.4830000000	52
49.5130000000	61
49.5430000000	58
49.5730000000	59
49.6030000000	59
49.6330000000	46
49.6630000000	68
49.6930000000	48
49.7230000000	49
49.7530000000	62
49.7830000000	60
49.8130000000	67
49.8430000000	52
49.8730000000	58
49.9030000000	51
49.9330000000	64
49.9630000000	41
49.9930000000	49
50.0230000000	54
50.0530000000	57
50.0830000000	62
50.1130000000	53
50.1430000000	55
50.1730000000	57
50.2030000000	56
50.2330000000	50
50.2630000000	47
50.2930000000	59
50.3230000000	77
50.3530000000	64
50.3830000000	70
50.4130000000	89
50.4430000000	94
50.4730000000	101
50.5030000000	102
50.5330000000	100
50.5630000000	92
50.5930000000	90
50.6230000000	97
50.6530000000	87
50.6830000000	66
50.7130000000	54
50.7430000000	56
50.7730000000	60
50.8030000000	53
50.8330000000	60
50.8630000000	47
50.8930000000	51
50.9230000000	51
50.9530000000	48
50.9830000000	48
51.0130000000	39
51.0430000000	53
51.0730000000	45
51.1030000000	47
51.1330000000	53
51.1630000000	42
51.1930000000	50
51.2230000000	50
51.2530000000	48
51.2830000000	48
51.3130000000	47
51.3430000000	45
51.3730000000	55
51.4030000000	54
51.4330000000	54
51.4630000000	51
51.4930000000	59
51.5230000000	57
51.5530000000	42
51.5830000000	51
51.6130000000	50
51.6430000000	41
51.6730000000	46
51.7030000000	51
51.7330000000	45
51.7630000000	37
51.7930000000	35
51.8230000000	43
51.8530000000	54
51.8830000000	44
51.9130000000	47
51.9430000000	45
51.9730000000	52
52.0030000000	46
52.0330000000	52
52.0630000000	50
52.0930000000	50
52.1230000000	44
52.1530000000	50
52.1830000000	53
52.2130000000	42
52.2430000000	51
52.2730000000	51
52.3030000000	46
52.3330000000	49
52.3630000000	43
52.3930000000	44
52.4230000000	45
52.4530000000	54
52.4830000000	47
52.5130000000	52
52.5430000000	52
52.5730000000	53
52.6030000000	50
52.6330000000	51
52.6630000000	44
52.6930000000	47
52.7230000000	48
52.7530000000	56
52.7830000000	46
52.8130000000	45
52.8430000000	64
52.8730000000	47
52.9030000000	45
52.9330000000	48
52.9630000000	52
52.9930000000	43
53.0230000000	49
53.0530000000	42
53.0830000000	44
53.1130000000	59
53.1430000000	49
53.1730000000	50
53.2030000000	36
53.2330000000	57
53.2630000000	36
53.2930000000	57
53.3230000000	51
53.3530000000	59
53.3830000000	46
53.4130000000	64
53.4430000000	76
53.4730000000	90
53.5030000000	115
53.5330000000	106
53.5630000000	123
53.5930000000	109
53.6230000000	115
53.6530000000	100
53.6830000000	79
53.7130000000	71
53.7430000000	56
53.7730000000	59
53.8030000000	61
53.8330000000	50
53.8630000000	37
53.8930000000	41
53.9230000000	45
53.9530000000	44
53.9830000000	44
54.0130000000	41
54.0430000000	54
54.0730000000	44
54.1030000000	47
54.1330000000	53
54.1630000000	40
54.1930000000	50
54.2230000000	55
54.2530000000	41
54.2830000000	44
54.3130000000	42
54.3430000000	41
54.3730000000	45
54.4030000000	39
54.4330000000	53
54.4630000000	44
54.4930000000	54
54.5230000000	42
54.5530000000	49
54.5830000000	48
54.6130000000	43
54.6430000000	50
54.6730000000	56
54.7030000000	48
54.7330000000	41
54.7630000000	43
54.7930000000	43
54.8230000000	53
54.8530000000	42
54.8830000000	58
54.9130000000	34
54.9430000000	45
54.9730000000	54
55.0030000000	42
55.0330000000	40
55.0630000000	46
55.0930000000	45
55.1230000000	43
55.1530000000	41
55.1830000000	49
55.2130000000	60
55.2430000000	54
55.2730000000	34
55.3030000000	49
55.3330000000	45
55.3630000000	52
55.3930000000	50
55.4230000000	46
55.4530000000	46
55.4830000000	44
55.5130000000	47
55.5430000000	46
55.5730000000	44
55.6030000000	56
55.6330000000	51
55.6630000000	33
55.6930000000	45
55.7230000000	56
55.7530000000	53
55.7830000000	40
55.8130000000	54
55.8430000000	45
55.8730000000	46
55.9030000000	48
55.9330000000	49
55.9630000000	42
55.9930000000	44
56.0230000000	54
56.0530000000	45
56.0830000000	42
56.1130000000	39
56.1430000000	49
56.1730000000	45
56.2030000000	42
56.2330000000	49
56.2630000000	44
56.2930000000	55
56.3230000000	41
56.3530000000	55
56.3830000000	45
56.4130000000	44
56.4430000000	46
56.4730000000	45
56.5030000000	40
56.5330000000	43
56.5630000000	50
56.5930000000	48
56.6230000000	49
56.6530000000	35
56.6830000000	48
56.7130000000	46
56.7430000000	43
56.7730000000	35
56.8030000000	27
56.8330000000	39
56.8630000000	48
56.8930000000	40
56.9230000000	39
56.9530000000	46
56.9830000000	42
57.0130000000	40
57.0430000000	42
57.0730000000	47
57.1030000000	48
57.1330000000	42
57.1630000000	43
57.1930000000	47
57.2230000000	44
57.2530000000	35
57.2830000000	50
57.3130000000	42
57.3430000000	41
57.3730000000	40
57.4030000000	42
57.4330000000	29
57.4630000000	34
57.4930000000	34
57.5230000000	49
57.5530000000	53
57.5830000000	49
57.6130000000	52
57.6430000000	50
57.6730000000	51
57.7030000000	42
57.7330000000	52
57.7630000000	44
57.7930000000	49
57.8230000000	49
57.8530000000	51
57.8830000000	37
57.9130000000	40
57.9430000000	41
57.9730000000	44
58.0030000000	61
58.0330000000	79
58.0630000000	95
58.0930000000	96
58.1230000000	87
58.1530000000	88
58.1830000000	71
58.2130000000	67
58.2430000000	79
58.2730000000	57
58.3030000000	50
58.3330000000	65
58.3630000000	49
58.3930000000	43
58.4230000000	47
58.4530000000	49
58.4830000000	60
58.5130000000	46
58.5430000000	45
58.5730000000	42
58.6030000000	44
58.6330000000	35
58.6630000000	50
58.6930000000	39
58.7230000000	34
58.7530000000	42
58.7830000000	41
58.8130000000	58
58.8430000000	42
58.8730000000	50
58.9030000000	48
58.9330000000	36
58.9630000000	40
58.9930000000	56
59.0230000000	55
59.0530000000	40
59.0830000000	52
59.1130000000	77
59.1430000000	79
59.1730000000	79
59.2030000000	72
59.2330000000	76
59.2630000000	72
59.2930000000	52
59.3230000000	50
59.3530000000	47
59.3830000000	47
59.4130000000	48
59.4430000000	55
59.4730000000	51
59.5030000000	42
59.5330000000	52
59.5630000000	49
59.5930000000	43
59.6230000000	37
59.6530000000	43
59.6830000000	49
59.7130000000	49
59.7430000000	42
59.7730000000	44
59.8030000000	49
59.8330000000	61
59.8630000000	57
59.8930000000	77
59.9230000000	92
59.9530000000	92
59.9830000000	104
60.0130000000	104
60.0430000000	95
60.0730000000	114
60.1030000000	93
60.1330000000	86
60.1630000000	64
60.1930000000	59
60.2230000000	57
60.2530000000	60
60.2830000000	49
60.3130000000	63
60.3430000000	50
60.3730000000	51
60.4030000000	51
60.4330000000	50
60.4630000000	63
60.4930000000	58
60.5230000000	60
60.5530000000	62
60.5830000000	41
60.6130000000	42
60.6430000000	54
60.6730000000	57
60.7030000000	43
60.7330000000	40
60.7630000000	38
60.7930000000	37
60.8230000000	48
60.8530000000	45
60.8830000000	40
60.9130000000	50
60.9430000000	42
60.9730000000	54
61.0030000000	46
61.0330000000	42
61.0630000000	41
61.0930000000	42
61.1230000000	47
61.1530000000	36
61.1830000000	30
61.2130000000	34
61.2430000000	40
61.2730000000	41
61.3030000000	35
61.3330000000	46
61.3630000000	52
61.3930000000	47
61.4230000000	48
61.4530000000	57
61.4830000000	43
61.5130000000	34
61.5430000000	41
61.5730000000	50
61.6030000000	49
61.6330000000	60
61.6630000000	56
61.6930000000	75
61.7230000000	59
61.7530000000	71
61.7830000000	68
61.8130000000	64
61.8430000000	59
61.8730000000	63
61.9030000000	61
61.9330000000	57
61.9630000000	58
61.9930000000	50
62.0230000000	52
62.0530000000	44
62.0830000000	42
62.1130000000	35
62.1430000000	36
62.1730000000	46
62.2030000000	33
62.2330000000	41
62.2630000000	31
62.2930000000	37
62.3230000000	40
62.3530000000	42
62.3830000000	45
62.4130000000	39
62.4430000000	45
62.4730000000	49
62.5030000000	39
62.5330000000	32
62.5630000000	35
62.5930000000	44
62.6230000000	39
62.6530000000	48
62.6830000000	32
62.7130000000	35
62.7430000000	44
62.7730000000	39
62.8030000000	43
62.8330000000	41
62.8630000000	47
62.8930000000	38
62.9230000000	38
62.9530000000	47
62.9830000000	44
63.0130000000	38
63.0430000000	45
63.0730000000	47
63.1030000000	33
63.1330000000	33
63.1630000000	31
63.1930000000	38
63.2230000000	34
63.2530000000	34
63.2830000000	44
63.3130000000	49
63.3430000000	42
63.3730000000	34
63.4030000000	41
63.4330000000	37
63.4630000000	38
63.4930000000	40
63.5230000000	54
63.5530000000	34
63.5830000000	38
63.6130000000	37
63.6430000000	36
63.6730000000	41
63.7030000000	34
63.7330000000	39
63.7630000000	31
63.7930000000	36
63.8230000000	38
63.8530000000	38
63.8830000000	38
63.9130000000	47
63.9430000000	35
63.9730000000	40
64.0030000000	38
64.0330000000	42
64.0630000000	41
64.0930000000	39
64.1230000000	33
64.1530000000	31
64.1830000000	37
64.2130000000	47
64.2430000000	41
64.2730000000	42
64.3030000000	35
64.3330000000	30
64.3630000000	36
64.3930000000	46
64.4230000000	38
64.4530000000	40
64.4830000000	36
64.5130000000	38
64.5430000000	39
64.5730000000	45
64.6030000000	42
64.6330000000	43
64.6630000000	39
64.6930000000	38
64.7230000000	41
64.7530000000	45
64.7830000000	35
64.8130000000	40
64.8430000000	45
64.8730000000	49
64.9030000000	36
64.9330000000	32
64.9630000000	37
64.9930000000	49
65.0230000000	40
65.0530000000	48
65.0830000000	44
65.1130000000	41
65.1430000000	35
65.1730000000	41
65.2030000000	39
65.2330000000	36
65.2630000000	43
65.2930000000	40
65.3230000000	42
65.3530000000	43
65.3830000000	31
65.4130000000	38
65.4430000000	41
65.4730000000	46
65.5030000000	46
65.5330000000	31
65.5630000000	42
65.5930000000	41
65.6230000000	43
65.6530000000	50
65.6830000000	53
65.7130000000	62
65.7430000000	86
65.7730000000	100
65.8030000000	150
65.8330000000	132
65.8630000000	136
65.8930000000	130
65.9230000000	115
65.9530000000	129
65.9830000000	121
66.0130000000	107
66.0430000000	98
66.0730000000	83
66.1030000000	81
66.1330000000	65
66.1630000000	57
66.1930000000	61
66.2230000000	52
66.2530000000	55
66.2830000000	52
66.3130000000	39
66.3430000000	43
66.3730000000	33
66.4030000000	44
66.4330000000	42
66.4630000000	41
66.4930000000	38
66.5230000000	41
66.5530000000	42
66.5830000000	43
66.6130000000	46
66.6430000000	43
66.6730000000	48
66.7030000000	44
66.7330000000	37
66.7630000000	46
66.7930000000	44
66.8230000000	37
66.8530000000	35
66.8830000000	44
66.9130000000	51
66.9430000000	51
66.9730000000	44
67.0030000000	32
67.0330000000	41
67.0630000000	57
67.0930000000	39
67.1230000000	36
67.1530000000	44
67.1830000000	40
67.2130000000	32
67.2430000000	37
67.2730000000	42
67.3030000000	42
67.3330000000	47
67.3630000000	36
67.3930000000	35
67.4230000000	31
67.4530000000	41
67.4830000000	40
67.5130000000	37
67.5430000000	35
67.5730000000	40
67.6030000000	42
67.6330000000	52
67.6630000000	42
67.6930000000	46
67.7230000000	43
67.7530000000	38
67.7830000000	40
67.8130000000	42
67.8430000000	38
67.8730000000	37
67.9030000000	46
67.9330000000	46
67.9630000000	43
67.9930000000	35
68.0230000000	42
68.0530000000	38
68.0830000000	48
68.1130000000	42
68.1430000000	41
68.1730000000	45
68.2030000000	39
68.2330000000	42
68.2630000000	41
68.2930000000	31
68.3230000000	47
68.3530000000	46
68.3830000000	43
68.4130000000	41
68.4430000000	53
68.4730000000	47
68.5030000000	41
68.5330000000	45
68.5630000000	51
68.5930000000	39
68.6230000000	43
68.6530000000	39
68.6830000000	58
68.7130000000	51
68.7430000000	53
68.7730000000	67
68.8030000000	80
68.8330000000	98
68.8630000000	83
68.8930000000	86
68.9230000000	82
68.9530000000	76
68.9830000000	87
69.0130000000	79
69.0430000000	80
69.0730000000	89
69.1030000000	78
69.1330000000	79
69.1630000000	66
69.1930000000	66
69.2230000000	56
69.2530000000	55
69.2830000000	64
69.3130000000	69
69.3430000000	61
69.3730000000	62
69.4030000000	45
69.4330000000	36
69.4630000000	51
69.4930000000	45
69.5230000000	47
69.5530000000	38
69.5830000000	33
69.6130000000	34
69.6430000000	42
69.6730000000	46
69.7030000000	36
69.7330000000	31
69.7630000000	37
69.7930000000	36
69.8230000000	38
69.8530000000	33
69.8830000000	43
69.9130000000	35
69.9430000000	43
69.9730000000	45
70.0030000000	55
70.0330000000	47
70.0630000000	35
70.0930000000	34
70.1230000000	31
70.1530000000	38
70.1830000000	39
70.2130000000	36
70.2430000000	37
70.2730000000	28
70.3030000000	50
70.3330000000	43
70.3630000000	40
70.3930000000	39
70.4230000000	46
70.4530000000	37
70.4830000000	37
70.5130000000	45
70.5430000000	32
70.5730000000	40
70.6030000000	45
70.6330000000	38
70.6630000000	37
70.6930000000	42
70.7230000000	36
70.7530000000	53
70.7830000000	53
70.8130000000	36
70.8430000000	32
70.8730000000	41
70.9030000000	28
70.9330000000	41
70.9630000000	42
70.9930000000	35
71.0230000000	36
71.0530000000	36
71.0830000000	35
71.1130000000	46
71.1430000000	46
71.1730000000	32
71.2030000000	48
71.2330000000	44
71.2630000000	34
71.2930000000	32
71.3230000000	51
71.3530000000	44
71.3830000000	37
71.4130000000	39
71.4430000000	33
71.4730000000	32
71.5030000000	26
71.5330000000	40
71.5630000000	41
71.5930000000	35
71.6230000000	38
71.6530000000	35
71.6830000000	37
71.7130000000	41
71.7430000000	41
71.7730000000	43
71.8030000000	54
71.8330000000	31
71.8630000000	38
71.8930000000	36
71.9230000000	39
71.9530000000	44
71.9830000000	45
72.0130000000	49
72.0430000000	55
72.0730000000	65
72.1030000000	36
72.1330000000	42
72.1630000000	42
72.1930000000	51
72.2230000000	54
72.2530000000	74
72.2830000000	57
72.3130000000	80
72.3430000000	70
72.3730000000	75
72.4030000000	67
72.4330000000	65
72.4630000000	50
72.4930000000	66
72.5230000000	77
72.5530000000	46
72.5830000000	46
72.6130000000	33
72.6430000000	46
72.6730000000	40
72.7030000000	40
72.7330000000	38
72.7630000000	47
72.7930000000	32
72.8230000000	45
72.8530000000	38
72.8830000000	48
72.9130000000	48
72.9430000000	34
72.9730000000	40
73.0030000000	38
73.0330000000	33
73.0630000000	43
73.0930000000	44
73.1230000000	49
73.1530000000	63
73.1830000000	59
73.2130000000	54
73.2430000000	74
73.2730000000	72
73.3030000000	92
73.3330000000	88
73.3630000000	67
73.3930000000	69
73.4230000000	66
73.4530000000	68
73.4830000000	59
73.5130000000	52
73.5430000000	55
73.5730000000	49
73.6030000000	45
73.6330000000	39
73.6630000000	42
73.6930000000	48
73.7230000000	40
73.7530000000	40
73.7830000000	48
73.8130000000	43
73.8430000000	45
73.8730000000	31
73.9030000000	58
73.9330000000	28
73.9630000000	38
73.9930000000	36
74.0230000000	31
74.0530000000	39
74.0830000000	39
74.1130000000	35
74.1430000000	32
74.1730000000	45
74.2030000000	40
74.2330000000	37
74.2630000000	39
74.2930000000	51
74.3230000000	50
74.3530000000	49
74.3830000000	45
74.4130000000	27
74.4430000000	40
74.4730000000	41
74.5030000000	54
74.5330000000	40
74.5630000000	45
74.5930000000	50
74.6230000000	51
74.6530000000	66
74.6830000000	73
74.7130000000	76
74.7430000000	84
74.7730000000	91
74.8030000000	96
74.8330000000	94
74.8630000000	92
74.8930000000	82
74.9230000000	92
74.9530000000	95
74.9830000000	94
75.0130000000	84
75.0430000000	71
75.0730000000	68
75.1030000000	67
75.1330000000	68
75.1630000000	58
75.1930000000	57
75.2230000000	56
75.2530000000	55
75.2830000000	44
75.3130000000	41
75.3430000000	37
75.3730000000	53
75.4030000000	52
75.4330000000	32
75.4630000000	40
75.4930000000	49
75.5230000000	39
75.5530000000	47
75.5830000000	54
75.6130000000	56
75.6430000000	42
75.6730000000	49
75.7030000000	49
75.7330000000	43
75.7630000000	46
75.7930000000	45
75.8230000000	47
75.8530000000	45
75.8830000000	35
75.9130000000	46
75.9430000000	33
75.9730000000	38
76.0030000000	39
76.0330000000	26
76.0630000000	31
76.0930000000	43
76.1230000000	47
76.1530000000	52
76.1830000000	43
76.2130000000	37
76.2430000000	40
76.2730000000	40
76.3030000000	36
76.3330000000	34
76.3630000000	38
76.3930000000	38
76.4230000000	25
76.4530000000	52
76.4830000000	34
76.5130000000	32
76.5430000000	44
76.5730000000	34
76.6030000000	36
76.6330000000	39
76.6630000000	33
76.6930000000	48
76.7230000000	43
76.7530000000	35
76.7830000000	46
76.8130000000	30
76.8430000000	57
76.8730000000	55
76.9030000000	49
76.9330000000	52
76.9630000000	63
76.9930000000	54
77.0230000000	54
77.0530000000	51
77.0830000000	47
77.1130000000	41
77.1430000000	50
77.1730000000	47
77.2030000000	38
77.2330000000	46
77.2630000000	39
77.2930000000	35
77.3230000000	47
77.3530000000	37
77.3830000000	37
77.4130000000	38
77.4430000000	37
77.4730000000	42
77.5030000000	61
77.5330000000	56
77.5630000000	59
77.5930000000	55
77.6230000000	49
77.6530000000	48
77.6830000000	45
77.7130000000	46
77.7430000000	56
77.7730000000	50
77.8030000000	50
77.8330000000	41
77.8630000000	47
77.8930000000	38
77.9230000000	36
77.9530000000	36
77.9830000000	36
78.0130000000	41
78.0430000000	38
78.0730000000	28
78.1030000000	31
78.1330000000	38
78.1630000000	28
78.1930000000	42
78.2230000000	23
78.2530000000	30
78.2830000000	35
78.3130000000	36
78.3430000000	35
78.3730000000	55
78.4030000000	44
78.4330000000	39
78.4630000000	47
78.4930000000	43
78.5230000000	34
78.5530000000	36
78.5830000000	41
78.6130000000	47
78.6430000000	30
78.6730000000	37
78.7030000000	38
78.7330000000	46
78.7630000000	40
78.7930000000	35
78.8230000000	38
78.8530000000	40
78.8830000000	36
78.9130000000	35
78.9430000000	42
78.9730000000	46
79.0030000000	36
79.0330000000	34
79.0630000000	33
79.0930000000	39
79.1230000000	43
79.1530000000	48
79.1830000000	36
79.2130000000	28
79.2430000000	44
79.2730000000	36
79.3030000000	32
79.3330000000	35
79.3630000000	38
79.3930000000	41
79.4230000000	44
79.4530000000	49
79.4830000000	33
79.5130000000	33
79.5430000000	40
79.5730000000	44
79.6030000000	42
79.6330000000	41
79.6630000000	36
79.6930000000	33
79.7230000000	32
79.7530000000	32
79.7830000000	44
79.8130000000	42
79.8430000000	53
79.8730000000	33
79.9030000000	23
79.9330000000	41
79.9630000000	41
79.9930000000	40
80.0230000000	41
80.0530000000	37
80.0830000000	39
80.1130000000	35
80.1430000000	47
80.1730000000	42
80.2030000000	37
80.2330000000	40
80.2630000000	26
80.2930000000	27
80.3230000000	36
80.3530000000	41
80.3830000000	44
80.4130000000	39
80.4430000000	36
80.4730000000	34
80.5030000000	44
80.5330000000	43
80.5630000000	51
80.5930000000	48
80.6230000000	43
80.6530000000	41
80.6830000000	21
80.7130000000	37
80.7430000000	37
80.7730000000	50
80.8030000000	38
80.8330000000	34
80.8630000000	50
80.8930000000	41
80.9230000000	50
80.9530000000	46
80.9830000000	46
81.0130000000	37
81.0430000000	39
81.0730000000	42
81.1030000000	44
81.1330000000	33
81.1630000000	40
81.1930000000	32
81.2230000000	51
81.2530000000	46
81.2830000000	64
81.3130000000	69
81.3430000000	77
81.3730000000	87
81.4030000000	78
81.4330000000	73
81.4630000000	80
81.4930000000	77
81.5230000000	73
81.5530000000	76
81.5830000000	75
81.6130000000	75
81.6430000000	59
81.6730000000	66
81.7030000000	54
81.7330000000	70
81.7630000000	49
81.7930000000	34
81.8230000000	42
81.8530000000	33
81.8830000000	35
81.9130000000	50
81.9430000000	24
81.9730000000	34
82.0030000000	47
82.0330000000	52
82.0630000000	40
82.0930000000	35
82.1230000000	35
82.1530000000	36
82.1830000000	37
82.2130000000	38
82.2430000000	32
82.2730000000	51
82.3030000000	50
82.3330000000	42
82.3630000000	36
82.3930000000	36
82.4230000000	40
82.4530000000	40
82.4830000000	42
82.5130000000	40
82.5430000000	31
82.5730000000	42
82.6030000000	41
82.6330000000	36
82.6630000000	38
82.6930000000	35
82.7230000000	31
82.7530000000	41
82.7830000000	49
82.8130000000	36
82.8430000000	43
82.8730000000	47
82.9030000000	40
82.9330000000	34
82.9630000000	30
82.9930000000	37
83.0230000000	38
83.0530000000	38
83.0830000000	28
83.1130000000	37
83.1430000000	42
83.1730000000	35
83.2030000000	28
83.2330000000	32
83.2630000000	37
83.2930000000	48
83.3230000000	40
83.3530000000	37
83.3830000000	31
83.4130000000	39
83.4430000000	43
83.4730000000	33
83.5030000000	38
83.5330000000	40
83.5630000000	44
83.5930000000	37
83.6230000000	49
83.6530000000	42
83.6830000000	58
83.7130000000	51
83.7430000000	48
83.7730000000	57
83.8030000000	52
83.8330000000	50
83.8630000000	61
83.8930000000	36
83.9230000000	42
83.9530000000	58
83.9830000000	51
84.0130000000	49
84.0430000000	40
84.0730000000	42
84.1030000000	37
84.1330000000	42
84.1630000000	38
84.1930000000	37
84.2230000000	35
84.2530000000	37
84.2830000000	40
84.3130000000	38
84.3430000000	40
84.3730000000	37
84.4030000000	32
84.4330000000	44
84.4630000000	42
84.4930000000	44
84.5230000000	40
84.5530000000	52
84.5830000000	44
84.6130000000	49
84.6430000000	46
84.6730000000	45
84.7030000000	60
84.7330000000	60
84.7630000000	68
84.7930000000	80
84.8230000000	74
84.8530000000	66
84.8830000000	61
84.9130000000	50
84.9430000000	65
84.9730000000	69
85.0030000000	80
85.0330000000	54
85.0630000000	60
85.0930000000	46
85.1230000000	48
85.1530000000	41
85.1830000000	37
85.2130000000	42
85.2430000000	33
85.2730000000	35
85.3030000000	36
85.3330000000	37
85.3630000000	43
85.3930000000	32
85.4230000000	30
85.4530000000	40
85.4830000000	37
85.5130000000	28
85.5430000000	37
85.5730000000	49
85.6030000000	39
85.6330000000	30
85.6630000000	38
85.6930000000	36
85.7230000000	41
85.7530000000	28
85.7830000000	46
85.8130000000	41
85.8430000000	29
85.8730000000	39
85.9030000000	32
85.9330000000	23
85.9630000000	29
85.9930000000	26
86.0230000000	45
86.0530000000	35
86.0830000000	41
86.1130000000	44
86.1430000000	26
86.1730000000	29
86.2030000000	37
86.2330000000	39
86.2630000000	34
86.2930000000	41
86.3230000000	36
86.3530000000	41
86.3830000000	33
86.4130000000	43
86.4430000000	37
86.4730000000	38
86.5030000000	33
86.5330000000	38
86.5630000000	45
86.5930000000	36
86.6230000000	39
86.6530000000	36
86.6830000000	36
86.7130000000	34
86.7430000000	36
86.7730000000	34
86.8030000000	43
86.8330000000	52
86.8630000000	35
86.8930000000	33
86.9230000000	44
86.9530000000	33
86.9830000000	35
87.0130000000	41
87.0430000000	37
87.0730000000	40
87.1030000000	37
87.1330000000	36
87.1630000000	38
87.1930000000	31
87.2230000000	35
87.2530000000	39
87.2830000000	35
87.3130000000	36
87.3430000000	20
87.3730000000	36
87.4030000000	36
87.4330000000	42
87.4630000000	42
87.4930000000	29
87.5230000000	37
87.5530000000	40
87.5830000000	45
87.6130000000	38
87.6430000000	37
87.6730000000	32
87.7030000000	35
87.7330000000	40
87.7630000000	43
87.7930000000	42
87.8230000000	39
87.8530000000	38
87.8830000000	36
87.9130000000	43
87.9430000000	36
87.9730000000	40
88.0030000000	38
88.0330000000	31
88.0630000000	40
88.0930000000	45
88.1230000000	27
88.1530000000	38
88.1830000000	34
88.2130000000	33
88.2430000000	37
88.2730000000	35
88.3030000000	39
88.3330000000	36
88.3630000000	25
88.3930000000	34
88.4230000000	36
88.4530000000	43
88.4830000000	41
88.5130000000	38
88.5430000000	38
88.5730000000	40
88.6030000000	32
88.6330000000	42
88.6630000000	43
88.6930000000	38
88.7230000000	32
88.7530000000	36
88.7830000000	24
88.8130000000	38
88.8430000000	34
88.8730000000	32
88.9030000000	43
88.9330000000	28
88.9630000000	35
88.9930000000	31
89.0230000000	31
89.0530000000	46
89.0830000000	63
89.1130000000	46
89.1430000000	49
89.1730000000	44
89.2030000000	46
89.2330000000	57
89.2630000000	49
89.2930000000	46
89.3230000000	57
89.3530000000	42
89.3830000000	45
89.4130000000	51
89.4430000000	39
89.4730000000	37
89.5030000000	41
89.5330000000	37
89.5630000000	33
89.5930000000	39
89.6230000000	39
89.6530000000	43
89.6830000000	43
89.7130000000	41
89.7430000000	46
89.7730000000	45
89.8030000000	42
89.8330000000	50
89.8630000000	59
89.8930000000	52
89.9230000000	43
89.9530000000	42
89.9830000000	38
90.0130000000	39
90.0430000000	37
90.0730000000	39
90.1030000000	36
90.1330000000	37
90.1630000000	36
90.1930000000	35
90.2230000000	50
90.2530000000	44
90.2830000000	38
90.3130000000	50
90.3430000000	42
90.3730000000	40
90.4030000000	42
90.4330000000	29
90.4630000000	34
90.4930000000	31
90.5230000000	36
90.5530000000	34
90.5830000000	32
90.6130000000	28
90.6430000000	31
90.6730000000	30
90.7030000000	33
90.7330000000	33
90.7630000000	35
90.7930000000	33
90.8230000000	40
90.8530000000	29
90.8830000000	46
90.9130000000	45
90.9430000000	39
90.9730000000	35
91.0030000000	36
91.0330000000	35
91.0630000000	46
91.0930000000	38
91.1230000000	30
91.1530000000	32
91.1830000000	42
91.2130000000	53
91.2430000000	36
91.2730000000	26
91.3030000000	34
91.3330000000	36
91.3630000000	30
91.3930000000	30
91.4230000000	43
91.4530000000	37
91.4830000000	37
91.5130000000	40
91.5430000000	38
91.5730000000	33
91.6030000000	37
91.6330000000	36
91.6630000000	33
91.6930000000	39
91.7230000000	36
91.7530000000	35
91.7830000000	31
91.8130000000	29
91.8430000000	41
91.8730000000	33
91.9030000000	31
91.9330000000	28
91.9630000000	37
91.9930000000	42
92.0230000000	36
92.0530000000	33
92.0830000000	37
92.1130000000	44
92.1430000000	32
92.1730000000	29
92.2030000000	41
92.2330000000	41
92.2630000000	31
92.2930000000	36
92.3230000000	40
92.3530000000	45
92.3830000000	37
92.4130000000	47
92.4430000000	45
92.4730000000	31
92.5030000000	39
92.5330000000	40
92.5630000000	35
92.5930000000	36
92.6230000000	56
92.6530000000	44
92.6830000000	40
92.7130000000	47
92.7430000000	39
92.7730000000	37
92.8030000000	36
92.8330000000	37
92.8630000000	36
92.8930000000	51
92.9230000000	45
92.9530000000	38
92.9830000000	28
93.0130000000	40
93.0430000000	43
93.0730000000	40
93.1030000000	33
93.1330000000	35
93.1630000000	30
93.1930000000	28
93.2230000000	41
93.2530000000	41
93.2830000000	33
93.3130000000	36
93.3430000000	27
93.3730000000	28
93.4030000000	37
93.4330000000	43
93.4630000000	38
93.4930000000	39
93.5230000000	43
93.5530000000	46
93.5830000000	34
93.6130000000	52
93.6430000000	30
93.6730000000	40
93.7030000000	27
93.7330000000	34
93.7630000000	35
93.7930000000	42
93.8230000000	35
93.8530000000	51
93.8830000000	32
93.9130000000	36
93.9430000000	43
93.9730000000	34
94.0030000000	33
94.0330000000	29
94.0630000000	30
94.0930000000	37
94.1230000000	57
94.1530000000	40
94.1830000000	43
94.2130000000	27
94.2430000000	54
94.2730000000	38
94.3030000000	38
94.3330000000	47
94.3630000000	57
94.3930000000	56
94.4230000000	55
94.4530000000	64
94.4830000000	56
94.5130000000	57
94.5430000000	79
94.5730000000	77
94.6030000000	52
94.6330000000	46
94.6630000000	53
94.6930000000	54
94.7230000000	55
94.7530000000	50
94.7830000000	43
94.8130000000	45
94.8430000000	44
94.8730000000	41
94.9030000000	38
94.9330000000	39
94.9630000000	40
94.9930000000	41
95.0230000000	47
95.0530000000	37
95.0830000000	44
95.1130000000	48
95.1430000000	47
95.1730000000	41
95.2030000000	36
95.2330000000	41
95.2630000000	24
95.2930000000	43
95.3230000000	32
95.3530000000	38
95.3830000000	45
95.4130000000	43
95.4430000000	38
95.4730000000	48
95.5030000000	48
95.5330000000	49
95.5630000000	47
95.5930000000	42
95.6230000000	41
95.6530000000	45
95.6830000000	45
95.7130000000	55
95.7430000000	38
95.7730000000	43
95.8030000000	39
95.8330000000	41
95.8630000000	43
95.8930000000	33
95.9230000000	40
95.9530000000	45
95.9830000000	51
96.0130000000	45
96.0430000000	39
96.0730000000	36
96.1030000000	35
96.1330000000	47
96.1630000000	34
96.1930000000	39
96.2230000000	30
96.2530000000	48
96.2830000000	36
96.3130000000	36
96.3430000000	40
96.3730000000	30
96.4030000000	40
96.4330000000	29
96.4630000000	31
96.4930000000	34
96.5230000000	36
96.5530000000	46
96.5830000000	38
96.6130000000	35
96.6430000000	39
96.6730000000	38
96.7030000000	41
96.7330000000	52
96.7630000000	43
96.7930000000	38
96.8230000000	43
96.8530000000	28
96.8830000000	32
96.9130000000	35
96.9430000000	34
96.9730000000	38
97.0030000000	47
97.0330000000	43
97.0630000000	37
97.0930000000	41
97.1230000000	38
97.1530000000	34
97.1830000000	30
97.2130000000	41
97.2430000000	44
97.2730000000	30
97.3030000000	37
97.3330000000	34
97.3630000000	30
97.3930000000	38
97.4230000000	38
97.4530000000	30
97.4830000000	32
97.5130000000	41
97.5430000000	33
97.5730000000	37
97.6030000000	35
97.6330000000	34
97.6630000000	42
97.6930000000	35
97.7230000000	27
97.7530000000	39
97.7830000000	32
97.8130000000	34
97.8430000000	34
97.8730000000	32
97.9030000000	36
97.9330000000	41
97.9630000000	40
97.9930000000	33
98.0230000000	30
98.0530000000	41
98.0830000000	34
98.1130000000	32
98.1430000000	42
98.1730000000	30
98.2030000000	32
98.2330000000	55
98.2630000000	44
98.2930000000	41
98.3230000000	30
98.3530000000	39
98.3830000000	35
98.4130000000	35
98.4430000000	37
98.4730000000	37
98.5030000000	40
98.5330000000	42
98.5630000000	40
98.5930000000	35
98.6230000000	36
98.6530000000	48
98.6830000000	36
98.7130000000	43
98.7430000000	53
98.7730000000	47
98.8030000000	37
98.8330000000	35
98.8630000000	53
98.8930000000	37
98.9230000000	37
98.9530000000	40
98.9830000000	37
99.0130000000	46
99.0430000000	46
99.0730000000	31
99.1030000000	41
99.1330000000	38
99.1630000000	32
99.1930000000	35
99.2230000000	47
99.2530000000	36
99.2830000000	31
99.3130000000	36
99.3430000000	39
99.3730000000	38
99.4030000000	31
99.4330000000	19
99.4630000000	32
99.4930000000	35
99.5230000000	38
99.5530000000	37
99.5830000000	33
99.6130000000	39
99.6430000000	30
99.6730000000	51
99.7030000000	40
99.7330000000	27
99.7630000000	36
99.7930000000	43
99.8230000000	33
99.8530000000	36
99.8830000000	30
99.9130000000	35
99.9430000000	29
99.9730000000	23
100.0030000000	39
100.0330000000	35
100.0630000000	36
100.0930000000	37
100.1230000000	30
100.1530000000	28
100.1830000000	32
100.2130000000	40
100.2430000000	40
100.2730000000	30
100.3030000000	39
100.3330000000	32
100.3630000000	40
100.3930000000	41
100.4230000000	32
100.4530000000	32
100.4830000000	32
100.5130000000	43
100.5430000000	30
100.5730000000	39
100.6030000000	38
100.6330000000	33
100.6630000000	33
100.6930000000	42
100.7230000000	32
100.7530000000	35
100.7830000000	43
100.8130000000	37
100.8430000000	34
100.8730000000	44
100.9030000000	35
100.9330000000	32
100.9630000000	36
100.9930000000	34
101.0230000000	30
101.0530000000	44
101.0830000000	51
101.1130000000	36
101.1430000000	36
101.1730000000	31
101.2030000000	38
101.2330000000	26
101.2630000000	40
101.2930000000	36
101.3230000000	29
101.3530000000	45
101.3830000000	45
101.4130000000	38
101.4430000000	33
101.4730000000	35
101.5030000000	31
101.5330000000	33
101.5630000000	33
101.5930000000	29
101.6230000000	32
101.6530000000	33
101.6830000000	30
101.7130000000	34
101.7430000000	45
101.7730000000	43
101.8030000000	32
101.8330000000	32
101.8630000000	36
101.8930000000	32
101.9230000000	45
101.9530000000	43
101.9830000000	32
102.0130000000	31
102.0430000000	33
102.0730000000	35
102.1030000000	30
102.1330000000	28
102.1630000000	37
102.1930000000	31
102.2230000000	38
102.2530000000	24
102.2830000000	37
102.3130000000	32
102.3430000000	30
102.3730000000	39
102.4030000000	31
102.4330000000	35
102.4630000000	33
102.4930000000	37
102.5230000000	34
102.5530000000	23
102.5830000000	30
102.6130000000	31
102.6430000000	41
102.6730000000	42
102.7030000000	37
102.7330000000	32
102.7630000000	41
102.7930000000	38
102.8230000000	44
102.8530000000	37
102.8830000000	29
102.9130000000	40
102.9430000000	36
102.9730000000	26
103.0030000000	34
103.0330000000	35
103.0630000000	32
103.0930000000	37
103.1230000000	36
103.1530000000	32
103.1830000000	34
103.2130000000	31
103.2430000000	27
103.2730000000	34
103.3030000000	44
103.3330000000	39
103.3630000000	38
103.3930000000	44
103.4230000000	35
103.4530000000	34
103.4830000000	34
103.5130000000	22
103.5430000000	35
103.5730000000	40
103.6030000000	27
103.6330000000	32
103.6630000000	29
103.6930000000	33
103.7230000000	43
103.7530000000	33
103.7830000000	45
103.8130000000	46
103.8430000000	41
103.8730000000	35
103.9030000000	40
103.9330000000	42
103.9630000000	31
103.9930000000	53
104.0230000000	48
104.0530000000	53
104.0830000000	40
104.1130000000	61
104.1430000000	41
104.1730000000	36
104.2030000000	41
104.2330000000	37
104.2630000000	37
104.2930000000	40
104.3230000000	56
104.3530000000	39
104.3830000000	40
104.4130000000	44
104.4430000000	39
104.4730000000	47
104.5030000000	38
104.5330000000	32
104.5630000000	37
104.5930000000	40
104.6230000000	37
104.6530000000	42
104.6830000000	38
104.7130000000	37
104.7430000000	35
104.7730000000	38
104.8030000000	39
104.8330000000	32
104.8630000000	39
104.8930000000	40
104.9230000000	29
104.9530000000	46
104.9830000000	45
105.0130000000	37
105.0430000000	34
105.0730000000	33
105.1030000000	41
105.1330000000	47
105.1630000000	46
105.1930000000	38
105.2230000000	30
105.2530000000	44
105.2830000000	59
105.3130000000	30
105.3430000000	41
105.3730000000	44
105.4030000000	34
105.4330000000	37
105.4630000000	34
105.4930000000	42
105.5230000000	35
105.5530000000	47
105.5830000000	30
105.6130000000	38
105.6430000000	33
105.6730000000	30
105.7030000000	43
105.7330000000	36
105.7630000000	35
105.7930000000	29
105.8230000000	35
105.8530000000	48
105.8830000000	28
105.9130000000	35
105.9430000000	29
105.9730000000	26
106.0030000000	33
106.0330000000	34
106.0630000000	34
106.0930000000	41
106.1230000000	37
106.1530000000	32
106.1830000000	42
106.2130000000	33
106.2430000000	31
106.2730000000	33
106.3030000000	35
106.3330000000	31
106.3630000000	40
106.3930000000	31
106.4230000000	29
106.4530000000	29
106.4830000000	45
106.5130000000	36
106.5430000000	43
106.5730000000	37
106.6030000000	35
106.6330000000	21
106.6630000000	32
106.6930000000	37
106.7230000000	40
106.7530000000	34
106.7830000000	40
106.8130000000	33
106.8430000000	30
106.8730000000	29
106.9030000000	45
106.9330000000	27
106.9630000000	32
106.9930000000	34
107.0230000000	33
107.0530000000	41
107.0830000000	42
107.1130000000	32
107.1430000000	36
107.1730000000	32
107.2030000000	40
107.2330000000	34
107.2630000000	49
107.2930000000	43
107.3230000000	32
107.3530000000	46
107.3830000000	40
107.4130000000	33
107.4430000000	37
107.4730000000	41
107.5030000000	30
107.5330000000	33
107.5630000000	32
107.5930000000	34
107.6230000000	39
107.6530000000	34
107.6830000000	40
107.7130000000	37
107.7430000000	34
107.7730000000	40
107.8030000000	32
107.8330000000	23
107.8630000000	35
107.8930000000	47
107.9230000000	35
107.9530000000	23
107.9830000000	32
108.0130000000	35
108.0430000000	44
108.0730000000	37
108.1030000000	41
108.1330000000	38
108.1630000000	50
108.1930000000	44
108.2230000000	42
108.2530000000	39
108.2830000000	42
108.3130000000	45
108.3430000000	30
108.3730000000	43
108.4030000000	49
108.4330000000	38
108.4630000000	53
108.4930000000	56
108.5230000000	30
108.5530000000	39
108.5830000000	55
108.6130000000	48
108.6430000000	43
108.6730000000	40
108.7030000000	43
108.7330000000	47
108.7630000000	37
108.7930000000	33
108.8230000000	42
108.8530000000	47
108.8830000000	43
108.9130000000	36
108.9430000000	53
108.9730000000	59
109.0030000000	41
109.0330000000	38
109.0630000000	53
109.0930000000	60
109.1230000000	59
109.1530000000	58
109.1830000000	48
109.2130000000	46
109.2430000000	47
109.2730000000	45
109.3030000000	47
109.3330000000	43
109.3630000000	44
109.3930000000	40
109.4230000000	27
109.4530000000	38
109.4830000000	52
109.5130000000	51
109.5430000000	33
109.5730000000	39
109.6030000000	40
109.6330000000	32
109.6630000000	37
109.6930000000	46
109.7230000000	42
109.7530000000	40
109.7830000000	54
109.8130000000	38
109.8430000000	26
109.8730000000	37
109.9030000000	38
109.9330000000	35
109.9630000000	33
109.9930000000	36
110.0230000000	37
110.0530000000	37
110.0830000000	41
110.1130000000	33
110.1430000000	40
110.1730000000	31
110.2030000000	31
110.2330000000	37
110.2630000000	40
110.2930000000	31
110.3230000000	42
110.3530000000	31
110.3830000000	34
110.4130000000	38
110.4430000000	35
110.4730000000	43
110.5030000000	30
110.5330000000	39
110.5630000000	31
110.5930000000	35
110.6230000000	38
110.6530000000	33
110.6830000000	49
110.7130000000	42
110.7430000000	50
110.7730000000	30
110.8030000000	29
110.8330000000	38
110.8630000000	28
110.8930000000	32
110.9230000000	33
110.9530000000	30
110.9830000000	31
111.0130000000	35
111.0430000000	45
111.0730000000	36
111.1030000000	40
111.1330000000	51
111.1630000000	47
111.1930000000	40
111.2230000000	35
111.2530000000	35
111.2830000000	33
111.3130000000	42
111.3430000000	34
111.3730000000	33
111.4030000000	44
111.4330000000	32
111.4630000000	42
111.4930000000	41
111.5230000000	40
111.5530000000	32
111.5830000000	50
111.6130000000	47
111.6430000000	45
111.6730000000	32
111.7030000000	33
111.7330000000	37
111.7630000000	39
111.7930000000	39
111.8230000000	37
111.8530000000	48
111.8830000000	42
111.9130000000	34
111.9430000000	37
111.9730000000	34
112.0030000000	38
112.0330000000	41
112.0630000000	40
112.0930000000	38
112.1230000000	35
112.1530000000	36
112.1830000000	34
112.2130000000	38
112.2430000000	47
112.2730000000	58
112.3030000000	52
112.3330000000	42
112.3630000000	40
112.3930000000	45
112.4230000000	44
112.4530000000	47
112.4830000000	35
112.5130000000	36
112.5430000000	39
112.5730000000	34
112.6030000000	48
112.6330000000	43
112.6630000000	27
112.6930000000	29
112.7230000000	43
112.7530000000	41
112.7830000000	31
112.8130000000	32
112.8430000000	33
112.8730000000	40
112.9030000000	50
112.9330000000	34
112.9630000000	46
112.9930000000	36
113.0230000000	29
113.0530000000	40
113.0830000000	37
113.1130000000	32
113.1430000000	31
113.1730000000	42
113.2030000000	35
113.2330000000	43
113.2630000000	47
113.2930000000	39
113.3230000000	34
113.3530000000	33
113.3830000000	39
113.4130000000	40
113.4430000000	33
113.4730000000	32
113.5030000000	36
113.5330000000	45
113.5630000000	33
113.5930000000	36
113.6230000000	38
113.6530000000	37
113.6830000000	31
113.7130000000	35
113.7430000000	37
113.7730000000	43
113.8030000000	51
113.8330000000	46
113.8630000000	38
113.8930000000	36
113.9230000000	40
113.9530000000	43
113.9830000000	53
114.0130000000	37
114.0430000000	31
114.0730000000	36
114.1030000000	48
114.1330000000	39
114.1630000000	37
114.1930000000	41
114.2230000000	37
114.2530000000	35
114.2830000000	34
114.3130000000	35
114.3430000000	39
114.3730000000	30
114.4030000000	56
114.4330000000	53
114.4630000000	1
114.4930000000	1
114.5230000000	1
114.5530000000	1
114.5830000000	1
