0.3130000000	2
0.3430000000	1
0.3730000000	2
0.4030000000	2
0.4330000000	1
0.4630000000	1
0.4930000000	1
0.5230000000	1
0.5530000000	1
0.5830000000	1
0.6130000000	1
0.6430000000	1
0.6730000000	1
0.7030000000	1
0.7330000000	1
0.7630000000	1
0.7930000000	2
0.8230000000	1
0.8530000000	1
0.8830000000	1
0.9130000000	3
0.9430000000	1
0.9730000000	1
1.0030000000	1
1.0330000000	1
1.0630000000	1
1.0930000000	1
1.1230000000	1
1.1530000000	1
1.1830000000	1
1.2130000000	1
1.2430000000	1
1.2730000000	3
1.3030000000	1
1.3330000000	1
1.3630000000	1
1.3930000000	1
1.4230000000	1
1.4530000000	1
1.4830000000	1
1.5130000000	2
1.5430000000	1
1.5730000000	1
1.6030000000	2
1.6330000000	1
1.6630000000	1
1.6930000000	1
1.7230000000	1
1.7530000000	2
1.7830000000	1
1.8130000000	1
1.8430000000	1
1.8730000000	1
1.9030000000	1
1.9330000000	2
1.9630000000	2
1.9930000000	1
2.0230000000	1
2.0530000000	2
2.0830000000	3
2.1130000000	2
2.1430000000	2
2.1730000000	1
2.2030000000	1
2.2330000000	2
2.2630000000	1
2.2930000000	1
2.3230000000	1
2.3530000000	1
2.3830000000	2
2.4130000000	2
2.4430000000	1
2.4730000000	1
2.5030000000	1
2.5330000000	1
2.5630000000	1
2.5930000000	1
2.6230000000	1
2.6530000000	2
2.6830000000	1
2.7130000000	1
2.7430000000	2
2.7730000000	1
2.8030000000	1
2.8330000000	2
2.8630000000	2
2.8930000000	3
2.9230000000	4
2.9530000000	1
2.9830000000	1
3.0130000000	1
3.0430000000	1
3.0730000000	1
3.1030000000	2
3.1330000000	1
3.1630000000	1
3.1930000000	1
3.2230000000	4
3.2530000000	4
3.2830000000	3
3.3130000000	2
3.3430000000	2
3.3730000000	4
3.4030000000	1
3.4330000000	1
3.4630000000	1
3.4930000000	1
3.5230000000	2
3.5530000000	1
3.5830000000	3
3.6130000000	3
3.6430000000	2
3.6730000000	2
3.7030000000	2
3.7330000000	3
3.7630000000	1
3.7930000000	2
3.8230000000	4
3.8530000000	2
3.8830000000	2
3.9130000000	4
3.9430000000	3
3.9730000000	1
4.0030000000	2
4.0330000000	2
4.0630000000	2
4.0930000000	1
4.1230000000	5
4.1530000000	4
4.1830000000	2
4.2130000000	2
4.2430000000	6
4.2730000000	4
4.3030000000	3
4.3330000000	5
4.3630000000	4
4.3930000000	3
4.4230000000	5
4.4530000000	9
4.4830000000	10
4.5130000000	19
4.5430000000	33
4.5730000000	46
4.6030000000	59
4.6330000000	97
4.6630000000	119
4.6930000000	115
4.7230000000	100
4.7530000000	120
4.7830000000	135
4.8130000000	125
4.8430000000	143
4.8730000000	139
4.9030000000	133
4.9330000000	132
4.9630000000	123
4.9930000000	139
5.0230000000	128
5.0530000000	139
5.0830000000	144
5.1130000000	146
5.1430000000	143
5.1730000000	143
5.2030000000	140
5.2330000000	149
5.2630000000	146
5.2930000000	149
5.3230000000	144
5.3530000000	156
5.3830000000	142
5.4130000000	146
5.4430000000	135
5.4730000000	140
5.5030000000	141
5.5330000000	148
5.5630000000	127
5.5930000000	133
5.6230000000	130
5.6530000000	152
5.6830000000	146
5.7130000000	139
5.7430000000	139
5.7730000000	154
5.8030000000	154
5.8330000000	150
5.8630000000	144
5.8930000000	156
5.9230000000	152
5.9530000000	169
5.9830000000	141
6.0130000000	157
6.0430000000	153
6.0730000000	147
6.1030000000	143
6.1330000000	150
6.1630000000	150
6.1930000000	151
6.2230000000	131
6.2530000000	130
6.2830000000	150
6.3130000000	160
6.3430000000	145
6.3730000000	146
6.4030000000	138
6.4330000000	143
6.4630000000	147
6.4930000000	164
6.5230000000	167
6.5530000000	167
6.5830000000	174
6.6130000000	163
6.6430000000	140
6.6730000000	131
6.7030000000	135
6.7330000000	125
6.7630000000	144
6.7930000000	147
6.8230000000	142
6.8530000000	146
6.8830000000	153
6.9130000000	164
6.9430000000	139
6.9730000000	122
7.0030000000	153
7.0330000000	140
7.0630000000	126
7.0930000000	149
7.1230000000	148
7.1530000000	127
7.1830000000	135
7.2130000000	144
7.2430000000	147
7.2730000000	154
7.3030000000	158
7.3330000000	153
7.3630000000	143
7.3930000000	134
7.4230000000	152
7.4530000000	143
7.4830000000	128
7.5130000000	147
7.5430000000	152
7.5730000000	148
7.6030000000	136
7.6330000000	120
7.6630000000	138
7.6930000000	146
7.7230000000	131
7.7530000000	135
7.7830000000	139
7.8130000000	136
7.8430000000	148
7.8730000000	163
7.9030000000	151
7.9330000000	130
7.9630000000	132
7.9930000000	129
8.0230000000	121
8.0530000000	151
8.0830000000	129
8.1130000000	169
8.1430000000	152
8.1730000000	128
8.2030000000	132
8.2330000000	151
8.2630000000	156
8.2930000000	153
8.3230000000	142
8.3530000000	159
8.3830000000	148
8.4130000000	166
8.4430000000	156
8.4730000000	134
8.5030000000	137
8.5330000000	147
8.5630000000	136
8.5930000000	147
8.6230000000	118
8.6530000000	125
8.6830000000	141
8.7130000000	156
8.7430000000	141
8.7730000000	151
8.8030000000	148
8.8330000000	143
8.8630000000	138
8.8930000000	149
8.9230000000	121
8.9530000000	127
8.9830000000	148
9.0130000000	145
9.0430000000	140
9.0730000000	133
9.1030000000	169
9.1330000000	135
9.1630000000	161
9.1930000000	149
9.2230000000	137
9.2530000000	138
9.2830000000	144
9.3130000000	139
9.3430000000	140
9.3730000000	142
9.4030000000	131
9.4330000000	140
9.4630000000	150
9.4930000000	143
9.5230000000	124
9.5530000000	139
9.5830000000	161
9.6130000000	139
9.6430000000	170
9.6730000000	138
9.7030000000	139
9.7330000000	174
9.7630000000	145
9.7930000000	136
9.8230000000	147
9.8530000000	122
9.8830000000	153
9.9130000000	123
9.9430000000	148
9.9730000000	145
10.0030000000	163
10.0330000000	139
10.0630000000	128
10.0930000000	158
10.1230000000	137
10.1530000000	149
10.1830000000	166
10.2130000000	165
10.2430000000	141
10.2730000000	139
10.3030000000	175
10.3330000000	153
10.3630000000	154
10.3930000000	147
10.4230000000	134
10.4530000000	147
10.4830000000	150
10.5130000000	151
10.5430000000	151
10.5730000000	149
10.6030000000	158
10.6330000000	127
10.6630000000	174
10.6930000000	152
10.7230000000	150
10.7530000000	156
10.7830000000	161
10.8130000000	146
10.8430000000	156
10.8730000000	139
10.9030000000	126
10.9330000000	146
10.9630000000	141
10.9930000000	130
11.0230000000	148
11.0530000000	148
11.0830000000	149
11.1130000000	151
11.1430000000	164
11.1730000000	154
11.2030000000	141
11.2330000000	168
11.2630000000	157
11.2930000000	138
11.3230000000	122
11.3530000000	171
11.3830000000	150
11.4130000000	138
11.4430000000	175
11.4730000000	142
11.5030000000	156
11.5330000000	160
11.5630000000	147
11.5930000000	164
11.6230000000	127
11.6530000000	132
11.6830000000	149
11.7130000000	145
11.7430000000	152
11.7730000000	130
11.8030000000	138
11.8330000000	134
11.8630000000	151
11.8930000000	141
11.9230000000	140
11.9530000000	126
11.9830000000	132
12.0130000000	142
12.0430000000	159
12.0730000000	155
12.1030000000	139
12.1330000000	151
12.1630000000	162
12.1930000000	159
12.2230000000	151
12.2530000000	143
12.2830000000	140
12.3130000000	141
12.3430000000	146
12.3730000000	149
12.4030000000	145
12.4330000000	145
12.4630000000	140
12.4930000000	131
12.5230000000	143
12.5530000000	163
12.5830000000	140
12.6130000000	137
12.6430000000	160
12.6730000000	147
12.7030000000	140
12.7330000000	153
12.7630000000	137
12.7930000000	132
12.8230000000	173
12.8530000000	168
12.8830000000	150
12.9130000000	151
12.9430000000	144
12.9730000000	153
13.0030000000	156
13.0330000000	146
13.0630000000	137
13.0930000000	141
13.1230000000	138
13.1530000000	115
13.1830000000	142
13.2130000000	132
13.2430000000	144
13.2730000000	144
13.3030000000	151
13.3330000000	161
13.3630000000	163
13.3930000000	153
13.4230000000	152
13.4530000000	129
13.4830000000	149
13.5130000000	128
13.5430000000	150
13.5730000000	142
13.6030000000	154
13.6330000000	136
13.6630000000	143
13.6930000000	141
13.7230000000	148
13.7530000000	164
13.7830000000	156
13.8130000000	143
13.8430000000	136
13.8730000000	164
13.9030000000	132
13.9330000000	138
13.9630000000	137
13.9930000000	157
14.0230000000	108
14.0530000000	142
14.0830000000	156
14.1130000000	133
14.1430000000	143
14.1730000000	139
14.2030000000	138
14.2330000000	150
14.2630000000	149
14.2930000000	122
14.3230000000	143
14.3530000000	173
14.3830000000	145
14.4130000000	137
14.4430000000	131
14.4730000000	177
14.5030000000	132
14.5330000000	154
14.5630000000	147
14.5930000000	134
14.6230000000	130
14.6530000000	153
14.6830000000	143
14.7130000000	139
14.7430000000	160
14.7730000000	147
14.8030000000	129
14.8330000000	155
14.8630000000	133
14.8930000000	147
14.9230000000	141
14.9530000000	160
14.9830000000	153
15.0130000000	140
15.0430000000	160
15.0730000000	168
15.1030000000	144
15.1330000000	141
15.1630000000	150
15.1930000000	144
15.2230000000	143
15.2530000000	159
15.2830000000	136
15.3130000000	162
15.3430000000	132
15.3730000000	169
15.4030000000	137
15.4330000000	171
15.4630000000	146
15.4930000000	163
15.5230000000	156
15.5530000000	127
15.5830000000	153
15.6130000000	163
15.6430000000	148
15.6730000000	145
15.7030000000	151
15.7330000000	126
15.7630000000	153
15.7930000000	149
15.8230000000	161
15.8530000000	148
15.8830000000	150
15.9130000000	133
15.9430000000	162
15.9730000000	165
16.0030000000	139
16.0330000000	132
16.0630000000	150
16.0930000000	140
16.1230000000	159
16.1530000000	134
16.1830000000	154
16.2130000000	130
16.2430000000	152
16.2730000000	134
16.3030000000	164
16.3330000000	156
16.3630000000	147
16.3930000000	137
16.4230000000	152
16.4530000000	146
16.4830000000	148
16.5130000000	150
16.5430000000	160
16.5730000000	150
16.6030000000	147
16.6330000000	147
16.6630000000	143
16.6930000000	154
16.7230000000	150
16.7530000000	124
16.7830000000	152
16.8130000000	126
16.8430000000	140
16.8730000000	143
16.9030000000	151
16.9330000000	142
16.9630000000	154
16.9930000000	146
17.0230000000	141
17.0530000000	145
17.0830000000	137
17.1130000000	146
17.1430000000	162
17.1730000000	150
17.2030000000	139
17.2330000000	140
17.2630000000	153
17.2930000000	164
17.3230000000	156
17.3530000000	140
17.3830000000	147
17.4130000000	139
17.4430000000	144
17.4730000000	144
17.5030000000	134
17.5330000000	160
17.5630000000	156
17.5930000000	139
17.6230000000	145
17.6530000000	138
17.6830000000	144
17.7130000000	148
17.7430000000	141
17.7730000000	139
17.8030000000	151
17.8330000000	151
17.8630000000	147
17.8930000000	145
17.9230000000	145
17.9530000000	144
17.9830000000	160
18.0130000000	172
18.0430000000	150
18.0730000000	144
18.1030000000	145
18.1330000000	124
18.1630000000	141
18.1930000000	143
18.2230000000	153
18.2530000000	151
18.2830000000	148
18.3130000000	136
18.3430000000	137
18.3730000000	141
18.4030000000	132
18.4330000000	143
18.4630000000	152
18.4930000000	148
18.5230000000	132
18.5530000000	147
18.5830000000	158
18.6130000000	149
18.6430000000	163
18.6730000000	147
18.7030000000	149
18.7330000000	171
18.7630000000	163
18.7930000000	156
18.8230000000	164
18.8530000000	152
18.8830000000	182
18.9130000000	186
18.9430000000	166
18.9730000000	168
19.0030000000	157
19.0330000000	158
19.0630000000	130
19.0930000000	152
19.1230000000	161
19.1530000000	148
19.1830000000	168
19.2130000000	157
19.2430000000	152
19.2730000000	156
19.3030000000	168
19.3330000000	145
19.3630000000	146
19.3930000000	152
19.4230000000	156
19.4530000000	136
19.4830000000	169
19.5130000000	143
19.5430000000	166
19.5730000000	161
19.6030000000	156
19.6330000000	126
19.6630000000	142
19.6930000000	146
19.7230000000	159
19.7530000000	147
19.7830000000	159
19.8130000000	152
19.8430000000	149
19.8730000000	140
19.9030000000	129
19.9330000000	160
19.9630000000	142
19.9930000000	148
20.0230000000	142
20.0530000000	155
20.0830000000	157
20.1130000000	149
20.1430000000	161
20.1730000000	133
20.2030000000	142
20.2330000000	152
20.2630000000	142
20.2930000000	173
20.3230000000	167
20.3530000000	148
20.3830000000	168
20.4130000000	169
20.4430000000	180
20.4730000000	195
20.5030000000	167
20.5330000000	203
20.5630000000	148
20.5930000000	207
20.6230000000	193
20.6530000000	249
20.6830000000	333
20.7130000000	571
20.7430000000	951
20.7730000000	1488
20.8030000000	2193
20.8330000000	3449
20.8630000000	5585
20.8930000000	8307
20.9230000000	8806
20.9530000000	6582
20.9830000000	3929
21.0130000000	2273
21.0430000000	1429
21.0730000000	853
21.1030000000	533
21.1330000000	330
21.1630000000	249
21.1930000000	244
21.2230000000	180
21.2530000000	179
21.2830000000	173
21.3130000000	165
21.3430000000	149
21.3730000000	158
21.4030000000	176
21.4330000000	160
21.4630000000	168
21.4930000000	163
21.5230000000	153
21.5530000000	177
21.5830000000	160
21.6130000000	160
21.6430000000	173
21.6730000000	178
21.7030000000	160
21.7330000000	159
21.7630000000	152
21.7930000000	170
21.8230000000	176
21.8530000000	152
21.8830000000	176
21.9130000000	161
21.9430000000	165
21.9730000000	155
22.0030000000	157
22.0330000000	153
22.0630000000	163
22.0930000000	178
22.1230000000	160
22.1530000000	148
22.1830000000	174
22.2130000000	165
22.2430000000	147
22.2730000000	157
22.3030000000	182
22.3330000000	172
22.3630000000	155
22.3930000000	160
22.4230000000	163
22.4530000000	164
22.4830000000	157
22.5130000000	147
22.5430000000	176
22.5730000000	189
22.6030000000	173
22.6330000000	176
22.6630000000	182
22.6930000000	167
22.7230000000	139
22.7530000000	175
22.7830000000	181
22.8130000000	142
22.8430000000	156
22.8730000000	169
22.9030000000	191
22.9330000000	163
22.9630000000	169
22.9930000000	157
23.0230000000	164
23.0530000000	158
23.0830000000	187
23.1130000000	161
23.1430000000	143
23.1730000000	143
23.2030000000	167
23.2330000000	156
23.2630000000	168
23.2930000000	178
23.3230000000	170
23.3530000000	184
23.3830000000	175
23.4130000000	157
23.4430000000	155
23.4730000000	188
23.5030000000	171
23.5330000000	175
23.5630000000	206
23.5930000000	169
23.6230000000	175
23.6530000000	177
23.6830000000	160
23.7130000000	164
23.7430000000	189
23.7730000000	192
23.8030000000	172
23.8330000000	165
23.8630000000	193
23.8930000000	171
23.9230000000	197
23.9530000000	157
23.9830000000	169
24.0130000000	179
24.0430000000	156
24.0730000000	156
24.1030000000	136
24.1330000000	157
24.1630000000	182
24.1930000000	176
24.2230000000	145
24.2530000000	164
24.2830000000	175
24.3130000000	182
24.3430000000	158
24.3730000000	154
24.4030000000	189
24.4330000000	176
24.4630000000	174
24.4930000000	188
24.5230000000	164
24.5530000000	167
24.5830000000	163
24.6130000000	166
24.6430000000	150
24.6730000000	148
24.7030000000	158
24.7330000000	142
24.7630000000	163
24.7930000000	186
24.8230000000	166
24.8530000000	184
24.8830000000	193
24.9130000000	168
24.9430000000	168
24.9730000000	182
25.0030000000	147
25.0330000000	182
25.0630000000	154
25.0930000000	207
25.1230000000	156
25.1530000000	165
25.1830000000	174
25.2130000000	187
25.2430000000	149
25.2730000000	173
25.3030000000	181
25.3330000000	163
25.3630000000	171
25.3930000000	189
25.4230000000	184
25.4530000000	177
25.4830000000	196
25.5130000000	236
25.5430000000	229
25.5730000000	238
25.6030000000	243
25.6330000000	242
25.6630000000	222
25.6930000000	205
25.7230000000	169
25.7530000000	161
25.7830000000	167
25.8130000000	154
25.8430000000	151
25.8730000000	170
25.9030000000	183
25.9330000000	141
25.9630000000	161
25.9930000000	166
26.0230000000	151
26.0530000000	170
26.0830000000	158
26.1130000000	161
26.1430000000	179
26.1730000000	149
26.2030000000	170
26.2330000000	176
26.2630000000	148
26.2930000000	164
26.3230000000	164
26.3530000000	148
26.3830000000	148
26.4130000000	160
26.4430000000	140
26.4730000000	150
26.5030000000	150
26.5330000000	132
26.5630000000	147
26.5930000000	157
26.6230000000	155
26.6530000000	158
26.6830000000	148
26.7130000000	150
26.7430000000	151
26.7730000000	145
26.8030000000	171
26.8330000000	166
26.8630000000	158
26.8930000000	170
26.9230000000	154
26.9530000000	144
26.9830000000	163
27.0130000000	169
27.0430000000	149
27.0730000000	158
27.1030000000	167
27.1330000000	167
27.1630000000	159
27.1930000000	139
27.2230000000	159
27.2530000000	146
27.2830000000	134
27.3130000000	137
27.3430000000	142
27.3730000000	151
27.4030000000	161
27.4330000000	163
27.4630000000	153
27.4930000000	145
27.5230000000	150
27.5530000000	144
27.5830000000	166
27.6130000000	149
27.6430000000	136
27.6730000000	153
27.7030000000	147
27.7330000000	156
27.7630000000	159
27.7930000000	147
27.8230000000	156
27.8530000000	157
27.8830000000	158
27.9130000000	170
27.9430000000	151
27.9730000000	131
28.0030000000	152
28.0330000000	134
28.0630000000	160
28.0930000000	154
28.1230000000	142
28.1530000000	162
28.1830000000	155
28.2130000000	152
28.2430000000	148
28.2730000000	159
28.3030000000	150
28.3330000000	155
28.3630000000	146
28.3930000000	161
28.4230000000	144
28.4530000000	158
28.4830000000	128
28.5130000000	158
28.5430000000	138
28.5730000000	150
28.6030000000	152
28.6330000000	141
28.6630000000	156
28.6930000000	152
28.7230000000	128
28.7530000000	162
28.7830000000	134
28.8130000000	157
28.8430000000	147
28.8730000000	146
28.9030000000	131
28.9330000000	129
28.9630000000	140
28.9930000000	137
29.0230000000	99
29.0530000000	148
29.0830000000	128
29.1130000000	174
29.1430000000	168
29.1730000000	140
29.2030000000	129
29.2330000000	138
29.2630000000	142
29.2930000000	125
29.3230000000	132
29.3530000000	150
29.3830000000	135
29.4130000000	130
29.4430000000	153
29.4730000000	144
29.5030000000	149
29.5330000000	132
29.5630000000	121
29.5930000000	152
29.6230000000	135
29.6530000000	127
29.6830000000	126
29.7130000000	133
29.7430000000	140
29.7730000000	141
29.8030000000	132
29.8330000000	128
29.8630000000	149
29.8930000000	130
29.9230000000	137
29.9530000000	146
29.9830000000	145
30.0130000000	153
30.0430000000	172
30.0730000000	141
30.1030000000	139
30.1330000000	139
30.1630000000	130
30.1930000000	131
30.2230000000	120
30.2530000000	114
30.2830000000	139
30.3130000000	155
30.3430000000	139
30.3730000000	123
30.4030000000	143
30.4330000000	116
30.4630000000	111
30.4930000000	127
30.5230000000	116
30.5530000000	136
30.5830000000	128
30.6130000000	145
30.6430000000	148
30.6730000000	128
30.7030000000	131
30.7330000000	145
30.7630000000	142
30.7930000000	139
30.8230000000	119
30.8530000000	128
30.8830000000	122
30.9130000000	132
30.9430000000	124
30.9730000000	114
31.0030000000	132
31.0330000000	140
31.0630000000	119
31.0930000000	117
31.1230000000	128
31.1530000000	140
31.1830000000	142
31.2130000000	142
31.2430000000	137
31.2730000000	119
31.3030000000	123
31.3330000000	125
31.3630000000	128
31.3930000000	138
31.4230000000	126
31.4530000000	142
31.4830000000	124
31.5130000000	138
31.5430000000	143
31.5730000000	124
31.6030000000	129
31.6330000000	134
31.6630000000	114
31.6930000000	121
31.7230000000	123
31.7530000000	162
31.7830000000	135
31.8130000000	131
31.8430000000	112
31.8730000000	126
31.9030000000	143
31.9330000000	103
31.9630000000	126
31.9930000000	126
32.0230000000	131
32.0530000000	120
32.0830000000	134
32.1130000000	120
32.1430000000	123
32.1730000000	140
32.2030000000	137
32.2330000000	125
32.2630000000	115
32.2930000000	130
32.3230000000	121
32.3530000000	120
32.3830000000	119
32.4130000000	110
32.4430000000	128
32.4730000000	130
32.5030000000	128
32.5330000000	132
32.5630000000	136
32.5930000000	130
32.6230000000	141
32.6530000000	133
32.6830000000	139
32.7130000000	139
32.7430000000	140
32.7730000000	159
32.8030000000	161
32.8330000000	141
32.8630000000	164
32.8930000000	145
32.9230000000	151
32.9530000000	181
32.9830000000	222
33.0130000000	331
33.0430000000	510
33.0730000000	817
33.1030000000	1278
33.1330000000	2024
33.1630000000	3136
33.1930000000	5021
33.2230000000	7312
33.2530000000	8576
33.2830000000	7578
33.3130000000	5261
33.3430000000	3268
33.3730000000	1883
33.4030000000	1089
33.4330000000	715
33.4630000000	410
33.4930000000	295
33.5230000000	229
33.5530000000	177
33.5830000000	160
33.6130000000	164
33.6430000000	155
33.6730000000	145
33.7030000000	148
33.7330000000	142
33.7630000000	148
33.7930000000	132
33.8230000000	121
33.8530000000	147
33.8830000000	147
33.9130000000	141
33.9430000000	128
33.9730000000	124
34.0030000000	110
34.0330000000	119
34.0630000000	136
34.0930000000	132
34.1230000000	111
34.1530000000	125
34.1830000000	112
34.2130000000	112
34.2430000000	117
34.2730000000	104
34.3030000000	109
34.3330000000	104
34.3630000000	117
34.3930000000	108
34.4230000000	106
34.4530000000	108
34.4830000000	109
34.5130000000	115
34.5430000000	114
34.5730000000	134
34.6030000000	130
34.6330000000	96
34.6630000000	106
34.6930000000	115
34.7230000000	110
34.7530000000	113
34.7830000000	110
34.8130000000	115
34.8430000000	110
34.8730000000	131
34.9030000000	129
34.9330000000	105
34.9630000000	105
34.9930000000	99
35.0230000000	101
35.0530000000	106
35.0830000000	105
35.1130000000	109
35.1430000000	112
35.1730000000	97
35.2030000000	107
35.2330000000	128
35.2630000000	108
35.2930000000	105
35.3230000000	103
35.3530000000	100
35.3830000000	105
35.4130000000	111
35.4430000000	103
35.4730000000	90
35.5030000000	104
35.5330000000	98
35.5630000000	94
35.5930000000	104
35.6230000000	112
35.6530000000	104
35.6830000000	107
35.7130000000	105
35.7430000000	110
35.7730000000	108
35.8030000000	98
35.8330000000	98
35.8630000000	92
35.8930000000	94
35.9230000000	95
35.9530000000	96
35.9830000000	99
36.0130000000	103
36.0430000000	98
36.0730000000	86
36.1030000000	87
36.1330000000	105
36.1630000000	104
36.1930000000	116
36.2230000000	137
36.2530000000	105
36.2830000000	123
36.3130000000	155
36.3430000000	156
36.3730000000	189
36.4030000000	240
36.4330000000	246
36.4630000000	259
36.4930000000	261
36.5230000000	206
36.5530000000	154
36.5830000000	149
36.6130000000	137
36.6430000000	131
36.6730000000	110
36.7030000000	96
36.7330000000	110
36.7630000000	91
36.7930000000	97
36.8230000000	104
36.8530000000	102
36.8830000000	103
36.9130000000	93
36.9430000000	86
36.9730000000	86
37.0030000000	100
37.0330000000	98
37.0630000000	107
37.0930000000	95
37.1230000000	102
37.1530000000	103
37.1830000000	95
37.2130000000	89
37.2430000000	97
37.2730000000	86
37.3030000000	87
37.3330000000	112
37.3630000000	102
37.3930000000	92
37.4230000000	105
37.4530000000	84
37.4830000000	85
37.5130000000	98
37.5430000000	93
37.5730000000	101
37.6030000000	91
37.6330000000	89
37.6630000000	103
37.6930000000	97
37.7230000000	105
37.7530000000	99
37.7830000000	100
37.8130000000	114
37.8430000000	93
37.8730000000	84
37.9030000000	95
37.9330000000	87
37.9630000000	99
37.9930000000	93
38.0230000000	102
38.0530000000	111
38.0830000000	100
38.1130000000	101
38.1430000000	93
38.1730000000	82
38.2030000000	92
38.2330000000	89
38.2630000000	90
38.2930000000	102
38.3230000000	100
38.3530000000	93
38.3830000000	91
38.4130000000	92
38.4430000000	97
38.4730000000	93
38.5030000000	86
38.5330000000	91
38.5630000000	88
38.5930000000	84
38.6230000000	85
38.6530000000	95
38.6830000000	97
38.7130000000	94
38.7430000000	89
38.7730000000	82
38.8030000000	90
38.8330000000	95
38.8630000000	91
38.8930000000	97
38.9230000000	104
38.9530000000	97
38.9830000000	97
39.0130000000	101
39.0430000000	92
39.0730000000	93
39.1030000000	80
39.1330000000	104
39.1630000000	96
39.1930000000	95
39.2230000000	88
39.2530000000	90
39.2830000000	87
39.3130000000	92
39.3430000000	95
39.3730000000	108
39.4030000000	97
39.4330000000	108
39.4630000000	101
39.4930000000	96
39.5230000000	103
39.5530000000	94
39.5830000000	96
39.6130000000	103
39.6430000000	89
39.6730000000	103
39.7030000000	101
39.7330000000	100
39.7630000000	92
39.7930000000	102
39.8230000000	77
39.8530000000	84
39.8830000000	92
39.9130000000	93
39.9430000000	89
39.9730000000	82
40.0030000000	95
40.0330000000	80
40.0630000000	88
40.0930000000	82
40.1230000000	79
40.1530000000	93
40.1830000000	85
40.2130000000	86
40.2430000000	112
40.2730000000	90
40.3030000000	101
40.3330000000	78
40.3630000000	83
40.3930000000	85
40.4230000000	89
40.4530000000	96
40.4830000000	88
40.5130000000	97
40.5430000000	102
40.5730000000	90
40.6030000000	106
40.6330000000	81
40.6630000000	90
40.6930000000	100
40.7230000000	114
40.7530000000	116
40.7830000000	114
40.8130000000	141
40.8430000000	166
40.8730000000	201
40.9030000000	275
40.9330000000	364
40.9630000000	429
40.9930000000	475
41.0230000000	436
41.0530000000	364
41.0830000000	269
41.1130000000	197
41.1430000000	183
41.1730000000	130
41.2030000000	119
41.2330000000	106
41.2630000000	107
41.2930000000	103
41.3230000000	102
41.3530000000	96
41.3830000000	105
41.4130000000	111
41.4430000000	96
41.4730000000	104
41.5030000000	107
41.5330000000	98
41.5630000000	111
41.5930000000	103
41.6230000000	75
41.6530000000	101
41.6830000000	99
41.7130000000	103
41.7430000000	98
41.7730000000	101
41.8030000000	103
41.8330000000	87
41.8630000000	91
41.8930000000	97
41.9230000000	102
41.9530000000	114
41.9830000000	107
42.0130000000	100
42.0430000000	97
42.0730000000	87
42.1030000000	93
42.1330000000	103
42.1630000000	95
42.1930000000	108
42.2230000000	120
42.2530000000	135
42.2830000000	164
42.3130000000	215
42.3430000000	226
42.3730000000	270
42.4030000000	305
42.4330000000	292
42.4630000000	293
42.4930000000	300
42.5230000000	260
42.5530000000	228
42.5830000000	215
42.6130000000	205
42.6430000000	180
42.6730000000	137
42.7030000000	107
42.7330000000	91
42.7630000000	101
42.7930000000	93
42.8230000000	85
42.8530000000	100
42.8830000000	100
42.9130000000	86
42.9430000000	89
42.9730000000	113
43.0030000000	85
43.0330000000	82
43.0630000000	93
43.0930000000	93
43.1230000000	79
43.1530000000	70
43.1830000000	107
43.2130000000	81
43.2430000000	98
43.2730000000	89
43.3030000000	101
43.3330000000	85
43.3630000000	81
43.3930000000	76
43.4230000000	116
43.4530000000	95
43.4830000000	81
43.5130000000	107
43.5430000000	81
43.5730000000	85
43.6030000000	88
43.6330000000	89
43.6630000000	99
43.6930000000	105
43.7230000000	86
43.7530000000	107
43.7830000000	90
43.8130000000	73
43.8430000000	91
43.8730000000	92
43.9030000000	85
43.9330000000	83
43.9630000000	85
43.9930000000	78
44.0230000000	73
44.0530000000	102
44.0830000000	83
44.1130000000	82
44.1430000000	92
44.1730000000	80
44.2030000000	105
44.2330000000	88
44.2630000000	89
44.2930000000	81
44.3230000000	83
44.3530000000	85
44.3830000000	88
44.4130000000	86
44.4430000000	97
44.4730000000	90
44.5030000000	65
44.5330000000	88
44.5630000000	90
44.5930000000	86
44.6230000000	83
44.6530000000	87
44.6830000000	71
44.7130000000	95
44.7430000000	96
44.7730000000	103
44.8030000000	79
44.8330000000	83
44.8630000000	88
44.8930000000	80
44.9230000000	90
44.9530000000	79
44.9830000000	84
45.0130000000	94
45.0430000000	107
45.0730000000	90
45.1030000000	78
45.1330000000	82
45.1630000000	78
45.1930000000	95
45.2230000000	84
45.2530000000	110
45.2830000000	99
45.3130000000	85
45.3430000000	63
45.3730000000	65
45.4030000000	79
45.4330000000	73
45.4630000000	75
45.4930000000	82
45.5230000000	89
45.5530000000	81
45.5830000000	73
45.6130000000	85
45.6430000000	84
45.6730000000	82
45.7030000000	83
45.7330000000	74
45.7630000000	83
45.7930000000	95
45.8230000000	70
45.8530000000	79
45.8830000000	71
45.9130000000	84
45.9430000000	88
45.9730000000	79
46.0030000000	84
46.0330000000	76
46.0630000000	80
46.0930000000	76
46.1230000000	90
46.1530000000	79
46.1830000000	83
46.2130000000	80
46.2430000000	89
46.2730000000	88
46.3030000000	93
46.3330000000	93
46.3630000000	105
46.3930000000	101
46.4230000000	117
46.4530000000	129
46.4830000000	108
46.5130000000	104
46.5430000000	110
46.5730000000	110
46.6030000000	87
46.6330000000	97
46.6630000000	78
46.6930000000	79
46.7230000000	75
46.7530000000	75
46.7830000000	86
46.8130000000	79
46.8430000000	90
46.8730000000	87
46.9030000000	58
46.9330000000	71
46.9630000000	73
46.9930000000	70
47.0230000000	84
47.0530000000	87
47.0830000000	75
47.1130000000	78
47.1430000000	93
47.1730000000	80
47.2030000000	86
47.2330000000	74
47.2630000000	73
47.2930000000	66
47.3230000000	96
47.3530000000	71
47.3830000000	81
47.4130000000	57
47.4430000000	78
47.4730000000	76
47.5030000000	68
47.5330000000	82
47.5630000000	74
47.5930000000	85
47.6230000000	65
47.6530000000	54
47.6830000000	82
47.7130000000	64
47.7430000000	60
47.7730000000	73
47.8030000000	77
47.8330000000	79
47.8630000000	62
47.8930000000	62
47.9230000000	79
47.9530000000	82
47.9830000000	65
48.0130000000	79
48.0430000000	63
48.0730000000	77
48.1030000000	70
48.1330000000	77
48.1630000000	61
48.1930000000	59
48.2230000000	82
48.2530000000	96
48.2830000000	83
48.3130000000	58
48.3430000000	71
48.3730000000	78
48.4030000000	88
48.4330000000	71
48.4630000000	62
48.4930000000	58
48.5230000000	90
48.5530000000	86
48.5830000000	61
48.6130000000	66
48.6430000000	74
48.6730000000	77
48.7030000000	72
48.7330000000	66
48.7630000000	58
48.7930000000	67
48.8230000000	67
48.8530000000	61
48.8830000000	60
48.9130000000	71
48.9430000000	73
48.9730000000	65
49.0030000000	71
49.0330000000	71
49.0630000000	56
49.0930000000	62
49.1230000000	72
49.1530000000	82
49.1830000000	70
49.2130000000	66
49.2430000000	65
49.2730000000	64
49.3030000000	66
49.3330000000	65
49.3630000000	53
49.3930000000	62
49.4230000000	61
49.4530000000	69
49.4830000000	62
49.5130000000	59
49.5430000000	52
49.5730000000	50
49.6030000000	63
49.6330000000	78
49.6630000000	65
49.6930000000	67
49.7230000000	59
49.7530000000	60
49.7830000000	67
49.8130000000	63
49.8430000000	77
49.8730000000	82
49.9030000000	63
49.9330000000	68
49.9630000000	54
49.9930000000	49
50.0230000000	69
50.0530000000	72
50.0830000000	66
50.1130000000	68
50.1430000000	56
50.1730000000	77
50.2030000000	72
50.2330000000	77
50.2630000000	81
50.2930000000	83
50.3230000000	72
50.3530000000	88
50.3830000000	84
50.4130000000	91
50.4430000000	82
50.4730000000	73
50.5030000000	77
50.5330000000	55
50.5630000000	67
50.5930000000	72
50.6230000000	67
50.6530000000	59
50.6830000000	80
50.7130000000	51
50.7430000000	46
50.7730000000	65
50.8030000000	61
50.8330000000	59
50.8630000000	60
50.8930000000	63
50.9230000000	63
50.9530000000	71
50.9830000000	68
51.0130000000	65
51.0430000000	67
51.0730000000	64
51.1030000000	63
51.1330000000	57
51.1630000000	56
51.1930000000	62
51.2230000000	62
51.2530000000	55
51.2830000000	61
51.3130000000	63
51.3430000000	61
51.3730000000	67
51.4030000000	67
51.4330000000	72
51.4630000000	60
51.4930000000	53
51.5230000000	73
51.5530000000	65
51.5830000000	64
51.6130000000	63
51.6430000000	66
51.6730000000	56
51.7030000000	44
51.7330000000	61
51.7630000000	67
51.7930000000	56
51.8230000000	63
51.8530000000	61
51.8830000000	54
51.9130000000	57
51.9430000000	51
51.9730000000	50
52.0030000000	58
52.0330000000	67
52.0630000000	45
52.0930000000	66
52.1230000000	70
52.1530000000	68
52.1830000000	74
52.2130000000	52
52.2430000000	53
52.2730000000	55
52.3030000000	53
52.3330000000	61
52.3630000000	60
52.3930000000	60
52.4230000000	62
52.4530000000	66
52.4830000000	64
52.5130000000	76
52.5430000000	85
52.5730000000	73
52.6030000000	85
52.6330000000	77
52.6630000000	58
52.6930000000	68
52.7230000000	59
52.7530000000	58
52.7830000000	68
52.8130000000	62
52.8430000000	47
52.8730000000	56
52.9030000000	83
52.9330000000	54
52.9630000000	56
52.9930000000	48
53.0230000000	55
53.0530000000	67
53.0830000000	52
53.1130000000	56
53.1430000000	54
53.1730000000	53
53.2030000000	74
53.2330000000	49
53.2630000000	48
53.2930000000	66
53.3230000000	67
53.3530000000	51
53.3830000000	46
53.4130000000	59
53.4430000000	64
53.4730000000	56
53.5030000000	59
53.5330000000	58
53.5630000000	60
53.5930000000	64
53.6230000000	62
53.6530000000	50
53.6830000000	57
53.7130000000	65
53.7430000000	56
53.7730000000	46
53.8030000000	53
53.8330000000	62
53.8630000000	57
53.8930000000	43
53.9230000000	50
53.9530000000	61
53.9830000000	58
54.0130000000	52
54.0430000000	55
54.0730000000	48
54.1030000000	51
54.1330000000	65
54.1630000000	61
54.1930000000	62
54.2230000000	50
54.2530000000	48
54.2830000000	56
54.3130000000	48
54.3430000000	55
54.3730000000	61
54.4030000000	50
54.4330000000	46
54.4630000000	53
54.4930000000	56
54.5230000000	59
54.5530000000	57
54.5830000000	68
54.6130000000	60
54.6430000000	59
54.6730000000	61
54.7030000000	47
54.7330000000	64
54.7630000000	47
54.7930000000	62
54.8230000000	53
54.8530000000	64
54.8830000000	52
54.9130000000	58
54.9430000000	72
54.9730000000	62
55.0030000000	45
55.0330000000	65
55.0630000000	62
55.0930000000	53
55.1230000000	57
55.1530000000	64
55.1830000000	45
55.2130000000	63
55.2430000000	65
55.2730000000	62
55.3030000000	64
55.3330000000	58
55.3630000000	45
55.3930000000	52
55.4230000000	56
55.4530000000	65
55.4830000000	52
55.5130000000	59
55.5430000000	56
55.5730000000	70
55.6030000000	59
55.6330000000	57
55.6630000000	53
55.6930000000	53
55.7230000000	56
55.7530000000	46
55.7830000000	59
55.8130000000	53
55.8430000000	56
55.8730000000	56
55.9030000000	56
55.9330000000	45
55.9630000000	59
55.9930000000	63
56.0230000000	49
56.0530000000	62
56.0830000000	41
56.1130000000	52
56.1430000000	48
56.1730000000	51
56.2030000000	57
56.2330000000	47
56.2630000000	46
56.2930000000	52
56.3230000000	64
56.3530000000	55
56.3830000000	65
56.4130000000	50
56.4430000000	47
56.4730000000	68
56.5030000000	56
56.5330000000	54
56.5630000000	63
56.5930000000	63
56.6230000000	61
56.6530000000	43
56.6830000000	51
56.7130000000	50
56.7430000000	54
56.7730000000	57
56.8030000000	70
56.8330000000	58
56.8630000000	57
56.8930000000	52
56.9230000000	55
56.9530000000	47
56.9830000000	55
57.0130000000	59
57.0430000000	64
57.0730000000	66
57.1030000000	64
57.1330000000	77
57.1630000000	57
57.1930000000	74
57.2230000000	71
57.2530000000	72
57.2830000000	60
57.3130000000	58
57.3430000000	61
57.3730000000	62
57.4030000000	56
57.4330000000	54
57.4630000000	68
57.4930000000	65
57.5230000000	55
57.5530000000	39
57.5830000000	53
57.6130000000	44
57.6430000000	41
57.6730000000	54
57.7030000000	57
57.7330000000	50
57.7630000000	48
57.7930000000	42
57.8230000000	43
57.8530000000	50
57.8830000000	50
57.9130000000	48
57.9430000000	58
57.9730000000	42
58.0030000000	62
58.0330000000	48
58.0630000000	57
58.0930000000	53
58.1230000000	52
58.1530000000	49
58.1830000000	67
58.2130000000	56
58.2430000000	59
58.2730000000	37
58.3030000000	44
58.3330000000	37
58.3630000000	49
58.3930000000	57
58.4230000000	54
58.4530000000	74
58.4830000000	40
58.5130000000	58
58.5430000000	59
58.5730000000	58
58.6030000000	42
58.6330000000	42
58.6630000000	41
58.6930000000	50
58.7230000000	44
58.7530000000	47
58.7830000000	59
58.8130000000	59
58.8430000000	46
58.8730000000	61
58.9030000000	60
58.9330000000	40
58.9630000000	51
58.9930000000	61
59.0230000000	49
59.0530000000	49
59.0830000000	50
59.1130000000	54
59.1430000000	51
59.1730000000	50
59.2030000000	50
59.2330000000	55
59.2630000000	55
59.2930000000	44
59.3230000000	50
59.3530000000	61
59.3830000000	61
59.4130000000	54
59.4430000000	51
59.4730000000	49
59.5030000000	47
59.5330000000	56
59.5630000000	66
59.5930000000	49
59.6230000000	59
59.6530000000	39
59.6830000000	48
59.7130000000	43
59.7430000000	52
59.7730000000	48
59.8030000000	51
59.8330000000	50
59.8630000000	53
59.8930000000	53
59.9230000000	40
59.9530000000	49
59.9830000000	54
60.0130000000	46
60.0430000000	54
60.0730000000	46
60.1030000000	56
60.1330000000	55
60.1630000000	52
60.1930000000	53
60.2230000000	47
60.2530000000	44
60.2830000000	46
60.3130000000	50
60.3430000000	55
60.3730000000	48
60.4030000000	58
60.4330000000	55
60.4630000000	64
60.4930000000	65
60.5230000000	66
60.5530000000	57
60.5830000000	64
60.6130000000	72
60.6430000000	59
60.6730000000	53
60.7030000000	60
60.7330000000	62
60.7630000000	38
60.7930000000	44
60.8230000000	44
60.8530000000	45
60.8830000000	42
60.9130000000	55
60.9430000000	56
60.9730000000	45
61.0030000000	53
61.0330000000	69
61.0630000000	51
61.0930000000	43
61.1230000000	36
61.1530000000	49
61.1830000000	38
61.2130000000	36
61.2430000000	43
61.2730000000	55
61.3030000000	49
61.3330000000	54
61.3630000000	48
61.3930000000	52
61.4230000000	42
61.4530000000	45
61.4830000000	44
61.5130000000	58
61.5430000000	56
61.5730000000	48
61.6030000000	50
61.6330000000	41
61.6630000000	41
61.6930000000	49
61.7230000000	53
61.7530000000	50
61.7830000000	44
61.8130000000	45
61.8430000000	58
61.8730000000	43
61.9030000000	60
61.9330000000	46
61.9630000000	54
61.9930000000	45
62.0230000000	50
62.0530000000	56
62.0830000000	48
62.1130000000	52
62.1430000000	40
62.1730000000	35
62.2030000000	42
62.2330000000	45
62.2630000000	48
62.2930000000	47
62.3230000000	48
62.3530000000	45
62.3830000000	48
62.4130000000	49
62.4430000000	51
62.4730000000	49
62.5030000000	46
62.5330000000	47
62.5630000000	50
62.5930000000	53
62.6230000000	46
62.6530000000	39
62.6830000000	56
62.7130000000	49
62.7430000000	42
62.7730000000	52
62.8030000000	45
62.8330000000	44
62.8630000000	48
62.8930000000	48
62.9230000000	49
62.9530000000	48
62.9830000000	48
63.0130000000	43
63.0430000000	47
63.0730000000	50
63.1030000000	50
63.1330000000	43
63.1630000000	49
63.1930000000	46
63.2230000000	51
63.2530000000	49
63.2830000000	37
63.3130000000	47
63.3430000000	62
63.3730000000	72
63.4030000000	62
63.4330000000	43
63.4630000000	68
63.4930000000	80
63.5230000000	99
63.5530000000	89
63.5830000000	96
63.6130000000	119
63.6430000000	108
63.6730000000	109
63.7030000000	96
63.7330000000	83
63.7630000000	84
63.7930000000	73
63.8230000000	61
63.8530000000	58
63.8830000000	55
63.9130000000	66
63.9430000000	45
63.9730000000	56
64.0030000000	46
64.0330000000	44
64.0630000000	55
64.0930000000	41
64.1230000000	50
64.1530000000	39
64.1830000000	49
64.2130000000	43
64.2430000000	36
64.2730000000	55
64.3030000000	39
64.3330000000	41
64.3630000000	53
64.3930000000	53
64.4230000000	47
64.4530000000	50
64.4830000000	44
64.5130000000	51
64.5430000000	51
64.5730000000	50
64.6030000000	51
64.6330000000	39
64.6630000000	47
64.6930000000	50
64.7230000000	48
64.7530000000	42
64.7830000000	53
64.8130000000	36
64.8430000000	47
64.8730000000	51
64.9030000000	45
64.9330000000	54
64.9630000000	47
64.9930000000	40
65.0230000000	44
65.0530000000	48
65.0830000000	50
65.1130000000	46
65.1430000000	51
65.1730000000	38
65.2030000000	43
65.2330000000	50
65.2630000000	40
65.2930000000	55
65.3230000000	47
65.3530000000	48
65.3830000000	47
65.4130000000	52
65.4430000000	53
65.4730000000	42
65.5030000000	49
65.5330000000	44
65.5630000000	34
65.5930000000	48
65.6230000000	43
65.6530000000	45
65.6830000000	43
65.7130000000	52
65.7430000000	49
65.7730000000	48
65.8030000000	47
65.8330000000	43
65.8630000000	55
65.8930000000	54
65.9230000000	47
65.9530000000	44
65.9830000000	58
66.0130000000	40
66.0430000000	56
66.0730000000	31
66.1030000000	58
66.1330000000	51
66.1630000000	36
66.1930000000	53
66.2230000000	55
66.2530000000	35
66.2830000000	39
66.3130000000	39
66.3430000000	48
66.3730000000	50
66.4030000000	43
66.4330000000	48
66.4630000000	52
66.4930000000	47
66.5230000000	48
66.5530000000	58
66.5830000000	54
66.6130000000	36
66.6430000000	35
66.6730000000	48
66.7030000000	54
66.7330000000	59
66.7630000000	47
66.7930000000	53
66.8230000000	47
66.8530000000	46
66.8830000000	53
66.9130000000	39
66.9430000000	39
66.9730000000	55
67.0030000000	45
67.0330000000	58
67.0630000000	47
67.0930000000	44
67.1230000000	42
67.1530000000	40
67.1830000000	43
67.2130000000	44
67.2430000000	43
67.2730000000	50
67.3030000000	54
67.3330000000	53
67.3630000000	49
67.3930000000	48
67.4230000000	40
67.4530000000	42
67.4830000000	48
67.5130000000	44
67.5430000000	59
67.5730000000	49
67.6030000000	36
67.6330000000	50
67.6630000000	43
67.6930000000	49
67.7230000000	39
67.7530000000	45
67.7830000000	52
67.8130000000	46
67.8430000000	47
67.8730000000	49
67.9030000000	43
67.9330000000	55
67.9630000000	54
67.9930000000	38
68.0230000000	59
68.0530000000	42
68.0830000000	40
68.1130000000	39
68.1430000000	50
68.1730000000	34
68.2030000000	39
68.2330000000	53
68.2630000000	47
68.2930000000	53
68.3230000000	48
68.3530000000	48
68.3830000000	50
68.4130000000	55
68.4430000000	41
68.4730000000	40
68.5030000000	40
68.5330000000	41
68.5630000000	47
68.5930000000	49
68.6230000000	43
68.6530000000	50
68.6830000000	52
68.7130000000	46
68.7430000000	50
68.7730000000	47
68.8030000000	55
68.8330000000	45
68.8630000000	48
68.8930000000	55
68.9230000000	54
68.9530000000	43
68.9830000000	48
69.0130000000	59
69.0430000000	48
69.0730000000	47
69.1030000000	48
69.1330000000	47
69.1630000000	65
69.1930000000	45
69.2230000000	55
69.2530000000	50
69.2830000000	56
69.3130000000	46
69.3430000000	40
69.3730000000	46
69.4030000000	48
69.4330000000	45
69.4630000000	41
69.4930000000	56
69.5230000000	52
69.5530000000	52
69.5830000000	49
69.6130000000	50
69.6430000000	43
69.6730000000	43
69.7030000000	43
69.7330000000	43
69.7630000000	42
69.7930000000	55
69.8230000000	52
69.8530000000	46
69.8830000000	40
69.9130000000	44
69.9430000000	38
69.9730000000	47
70.0030000000	48
70.0330000000	38
70.0630000000	50
70.0930000000	55
70.1230000000	33
70.1530000000	40
70.1830000000	40
70.2130000000	41
70.2430000000	42
70.2730000000	48
70.3030000000	48
70.3330000000	49
70.3630000000	31
70.3930000000	41
70.4230000000	32
70.4530000000	59
70.4830000000	51
70.5130000000	40
70.5430000000	53
70.5730000000	51
70.6030000000	54
70.6330000000	41
70.6630000000	40
70.6930000000	52
70.7230000000	58
70.7530000000	31
70.7830000000	43
70.8130000000	59
70.8430000000	49
70.8730000000	42
70.9030000000	50
70.9330000000	60
70.9630000000	45
70.9930000000	48
71.0230000000	40
71.0530000000	41
71.0830000000	44
71.1130000000	50
71.1430000000	54
71.1730000000	49
71.2030000000	45
71.2330000000	41
71.2630000000	47
71.2930000000	38
71.3230000000	49
71.3530000000	55
71.3830000000	54
71.4130000000	44
71.4430000000	51
71.4730000000	43
71.5030000000	38
71.5330000000	41
71.5630000000	44
71.5930000000	52
71.6230000000	45
71.6530000000	42
71.6830000000	53
71.7130000000	57
71.7430000000	40
71.7730000000	58
71.8030000000	39
71.8330000000	52
71.8630000000	51
71.8930000000	44
71.9230000000	40
71.9530000000	49
71.9830000000	41
72.0130000000	45
72.0430000000	60
72.0730000000	60
72.1030000000	49
72.1330000000	43
72.1630000000	40
72.1930000000	41
72.2230000000	49
72.2530000000	61
72.2830000000	39
72.3130000000	35
72.3430000000	46
72.3730000000	41
72.4030000000	50
72.4330000000	46
72.4630000000	36
72.4930000000	42
72.5230000000	39
72.5530000000	61
72.5830000000	70
72.6130000000	71
72.6430000000	59
72.6730000000	60
72.7030000000	67
72.7330000000	51
72.7630000000	71
72.7930000000	61
72.8230000000	58
72.8530000000	50
72.8830000000	43
72.9130000000	52
72.9430000000	60
72.9730000000	49
73.0030000000	52
73.0330000000	39
73.0630000000	50
73.0930000000	45
73.1230000000	50
73.1530000000	50
73.1830000000	36
73.2130000000	39
73.2430000000	47
73.2730000000	52
73.3030000000	47
73.3330000000	50
73.3630000000	41
73.3930000000	38
73.4230000000	39
73.4530000000	40
73.4830000000	43
73.5130000000	44
73.5430000000	60
73.5730000000	48
73.6030000000	37
73.6330000000	34
73.6630000000	33
73.6930000000	47
73.7230000000	59
73.7530000000	51
73.7830000000	47
73.8130000000	48
73.8430000000	37
73.8730000000	60
73.9030000000	37
73.9330000000	46
73.9630000000	45
73.9930000000	52
74.0230000000	36
74.0530000000	39
74.0830000000	40
74.1130000000	52
74.1430000000	44
74.1730000000	46
74.2030000000	44
74.2330000000	52
74.2630000000	40
74.2930000000	44
74.3230000000	55
74.3530000000	50
74.3830000000	43
74.4130000000	49
74.4430000000	49
74.4730000000	40
74.5030000000	50
74.5330000000	54
74.5630000000	48
74.5930000000	42
74.6230000000	47
74.6530000000	43
74.6830000000	40
74.7130000000	48
74.7430000000	52
74.7730000000	46
74.8030000000	41
74.8330000000	40
74.8630000000	42
74.8930000000	47
74.9230000000	53
74.9530000000	38
74.9830000000	53
75.0130000000	42
75.0430000000	50
75.0730000000	47
75.1030000000	52
75.1330000000	45
75.1630000000	62
75.1930000000	61
75.2230000000	57
75.2530000000	49
75.2830000000	49
75.3130000000	52
75.3430000000	60
75.3730000000	55
75.4030000000	54
75.4330000000	61
75.4630000000	57
75.4930000000	61
75.5230000000	81
75.5530000000	104
75.5830000000	152
75.6130000000	188
75.6430000000	245
75.6730000000	282
75.7030000000	314
75.7330000000	300
75.7630000000	247
75.7930000000	249
75.8230000000	210
75.8530000000	207
75.8830000000	184
75.9130000000	163
75.9430000000	161
75.9730000000	132
76.0030000000	104
76.0330000000	81
76.0630000000	64
76.0930000000	52
76.1230000000	49
76.1530000000	55
76.1830000000	46
76.2130000000	52
76.2430000000	56
76.2730000000	54
76.3030000000	49
76.3330000000	44
76.3630000000	40
76.3930000000	51
76.4230000000	48
76.4530000000	45
76.4830000000	42
76.5130000000	49
76.5430000000	55
76.5730000000	51
76.6030000000	50
76.6330000000	48
76.6630000000	47
76.6930000000	50
76.7230000000	50
76.7530000000	48
76.7830000000	35
76.8130000000	44
76.8430000000	45
76.8730000000	44
76.9030000000	42
76.9330000000	45
76.9630000000	47
76.9930000000	45
77.0230000000	42
77.0530000000	38
77.0830000000	44
77.1130000000	41
77.1430000000	42
77.1730000000	39
77.2030000000	44
77.2330000000	26
77.2630000000	38
77.2930000000	43
77.3230000000	42
77.3530000000	40
77.3830000000	46
77.4130000000	39
77.4430000000	42
77.4730000000	39
77.5030000000	37
77.5330000000	46
77.5630000000	40
77.5930000000	43
77.6230000000	50
77.6530000000	30
77.6830000000	45
77.7130000000	42
77.7430000000	44
77.7730000000	51
77.8030000000	43
77.8330000000	46
77.8630000000	41
77.8930000000	40
77.9230000000	39
77.9530000000	48
77.9830000000	48
78.0130000000	49
78.0430000000	42
78.0730000000	49
78.1030000000	43
78.1330000000	42
78.1630000000	50
78.1930000000	31
78.2230000000	35
78.2530000000	58
78.2830000000	53
78.3130000000	44
78.3430000000	34
78.3730000000	44
78.4030000000	45
78.4330000000	37
78.4630000000	35
78.4930000000	42
78.5230000000	49
78.5530000000	49
78.5830000000	44
78.6130000000	42
78.6430000000	41
78.6730000000	35
78.7030000000	41
78.7330000000	50
78.7630000000	40
78.7930000000	36
78.8230000000	53
78.8530000000	41
78.8830000000	53
78.9130000000	49
78.9430000000	45
78.9730000000	42
79.0030000000	38
79.0330000000	34
79.0630000000	34
79.0930000000	37
79.1230000000	47
79.1530000000	48
79.1830000000	40
79.2130000000	30
79.2430000000	45
79.2730000000	48
79.3030000000	32
79.3330000000	38
79.3630000000	56
79.3930000000	42
79.4230000000	34
79.4530000000	43
79.4830000000	37
79.5130000000	44
79.5430000000	44
79.5730000000	44
79.6030000000	32
79.6330000000	28
79.6630000000	40
79.6930000000	43
79.7230000000	46
79.7530000000	35
79.7830000000	42
79.8130000000	24
79.8430000000	36
79.8730000000	39
79.9030000000	41
79.9330000000	46
79.9630000000	36
79.9930000000	35
80.0230000000	37
80.0530000000	47
80.0830000000	51
80.1130000000	41
80.1430000000	40
80.1730000000	37
80.2030000000	44
80.2330000000	47
80.2630000000	36
80.2930000000	34
80.3230000000	33
80.3530000000	37
80.3830000000	33
80.4130000000	43
80.4430000000	41
80.4730000000	33
80.5030000000	32
80.5330000000	35
80.5630000000	34
80.5930000000	40
80.6230000000	47
80.6530000000	37
80.6830000000	51
80.7130000000	40
80.7430000000	34
80.7730000000	37
80.8030000000	37
80.8330000000	43
80.8630000000	33
80.8930000000	42
80.9230000000	38
80.9530000000	32
80.9830000000	38
81.0130000000	35
81.0430000000	44
81.0730000000	30
81.1030000000	50
81.1330000000	34
81.1630000000	42
81.1930000000	46
81.2230000000	46
81.2530000000	41
81.2830000000	36
81.3130000000	35
81.3430000000	53
81.3730000000	40
81.4030000000	44
81.4330000000	43
81.4630000000	43
81.4930000000	34
81.5230000000	33
81.5530000000	43
81.5830000000	40
81.6130000000	44
81.6430000000	42
81.6730000000	34
81.7030000000	41
81.7330000000	43
81.7630000000	49
81.7930000000	44
81.8230000000	43
81.8530000000	38
81.8830000000	45
81.9130000000	43
81.9430000000	43
81.9730000000	34
82.0030000000	31
82.0330000000	34
82.0630000000	29
82.0930000000	58
82.1230000000	55
82.1530000000	46
82.1830000000	45
82.2130000000	37
82.2430000000	32
82.2730000000	36
82.3030000000	50
82.3330000000	43
82.3630000000	40
82.3930000000	51
82.4230000000	52
82.4530000000	42
82.4830000000	40
82.5130000000	38
82.5430000000	35
82.5730000000	47
82.6030000000	38
82.6330000000	44
82.6630000000	37
82.6930000000	44
82.7230000000	41
82.7530000000	35
82.7830000000	30
82.8130000000	36
82.8430000000	42
82.8730000000	51
82.9030000000	39
82.9330000000	32
82.9630000000	32
82.9930000000	50
83.0230000000	43
83.0530000000	36
83.0830000000	39
83.1130000000	31
83.1430000000	37
83.1730000000	41
83.2030000000	32
83.2330000000	37
83.2630000000	34
83.2930000000	41
83.3230000000	54
83.3530000000	32
83.3830000000	34
83.4130000000	38
83.4430000000	40
83.4730000000	33
83.5030000000	47
83.5330000000	37
83.5630000000	40
83.5930000000	32
83.6230000000	44
83.6530000000	56
83.6830000000	41
83.7130000000	30
83.7430000000	37
83.7730000000	40
83.8030000000	37
83.8330000000	32
83.8630000000	37
83.8930000000	29
83.9230000000	37
83.9530000000	42
83.9830000000	32
84.0130000000	37
84.0430000000	42
84.0730000000	44
84.1030000000	36
84.1330000000	42
84.1630000000	40
84.1930000000	34
84.2230000000	41
84.2530000000	38
84.2830000000	33
84.3130000000	43
84.3430000000	35
84.3730000000	38
84.4030000000	42
84.4330000000	43
84.4630000000	34
84.4930000000	28
84.5230000000	36
84.5530000000	38
84.5830000000	38
84.6130000000	39
84.6430000000	38
84.6730000000	42
84.7030000000	36
84.7330000000	39
84.7630000000	48
84.7930000000	34
84.8230000000	33
84.8530000000	45
84.8830000000	30
84.9130000000	38
84.9430000000	30
84.9730000000	36
85.0030000000	35
85.0330000000	36
85.0630000000	36
85.0930000000	39
85.1230000000	46
85.1530000000	32
85.1830000000	40
85.2130000000	39
85.2430000000	36
85.2730000000	31
85.3030000000	33
85.3330000000	48
85.3630000000	42
85.3930000000	43
85.4230000000	44
85.4530000000	42
85.4830000000	30
85.5130000000	39
85.5430000000	39
85.5730000000	43
85.6030000000	37
85.6330000000	37
85.6630000000	34
85.6930000000	37
85.7230000000	31
85.7530000000	35
85.7830000000	37
85.8130000000	29
85.8430000000	38
85.8730000000	36
85.9030000000	42
85.9330000000	38
85.9630000000	44
85.9930000000	38
86.0230000000	49
86.0530000000	36
86.0830000000	36
86.1130000000	39
86.1430000000	27
86.1730000000	43
86.2030000000	36
86.2330000000	36
86.2630000000	44
86.2930000000	31
86.3230000000	44
86.3530000000	43
86.3830000000	40
86.4130000000	40
86.4430000000	32
86.4730000000	37
86.5030000000	38
86.5330000000	37
86.5630000000	31
86.5930000000	46
86.6230000000	49
86.6530000000	38
86.6830000000	36
86.7130000000	38
86.7430000000	45
86.7730000000	39
86.8030000000	41
86.8330000000	44
86.8630000000	40
86.8930000000	46
86.9230000000	46
86.9530000000	47
86.9830000000	48
87.0130000000	41
87.0430000000	43
87.0730000000	42
87.1030000000	37
87.1330000000	39
87.1630000000	35
87.1930000000	41
87.2230000000	44
87.2530000000	40
87.2830000000	47
87.3130000000	37
87.3430000000	32
87.3730000000	42
87.4030000000	34
87.4330000000	29
87.4630000000	32
87.4930000000	39
87.5230000000	37
87.5530000000	36
87.5830000000	36
87.6130000000	39
87.6430000000	34
87.6730000000	34
87.7030000000	42
87.7330000000	39
87.7630000000	53
87.7930000000	43
87.8230000000	34
87.8530000000	37
87.8830000000	44
87.9130000000	35
87.9430000000	40
87.9730000000	41
88.0030000000	40
88.0330000000	39
88.0630000000	39
88.0930000000	33
88.1230000000	33
88.1530000000	41
88.1830000000	49
88.2130000000	52
88.2430000000	33
88.2730000000	33
88.3030000000	46
88.3330000000	45
88.3630000000	36
88.3930000000	41
88.4230000000	45
88.4530000000	44
88.4830000000	37
88.5130000000	46
88.5430000000	41
88.5730000000	30
88.6030000000	28
88.6330000000	45
88.6630000000	53
88.6930000000	45
88.7230000000	44
88.7530000000	53
88.7830000000	57
88.8130000000	44
88.8430000000	57
88.8730000000	56
88.9030000000	59
88.9330000000	48
88.9630000000	43
88.9930000000	65
89.0230000000	47
89.0530000000	52
89.0830000000	44
89.1130000000	56
89.1430000000	39
89.1730000000	41
89.2030000000	40
89.2330000000	44
89.2630000000	43
89.2930000000	42
89.3230000000	51
89.3530000000	42
89.3830000000	39
89.4130000000	38
89.4430000000	30
89.4730000000	25
89.5030000000	34
89.5330000000	33
89.5630000000	38
89.5930000000	38
89.6230000000	41
89.6530000000	43
89.6830000000	39
89.7130000000	35
89.7430000000	33
89.7730000000	35
89.8030000000	33
89.8330000000	42
89.8630000000	54
89.8930000000	38
89.9230000000	40
89.9530000000	41
89.9830000000	47
90.0130000000	38
90.0430000000	39
90.0730000000	43
90.1030000000	44
90.1330000000	45
90.1630000000	49
90.1930000000	38
90.2230000000	41
90.2530000000	35
90.2830000000	35
90.3130000000	32
90.3430000000	38
90.3730000000	39
90.4030000000	41
90.4330000000	32
90.4630000000	36
90.4930000000	40
90.5230000000	36
90.5530000000	48
90.5830000000	47
90.6130000000	51
90.6430000000	42
90.6730000000	32
90.7030000000	36
90.7330000000	36
90.7630000000	38
90.7930000000	48
90.8230000000	38
90.8530000000	38
90.8830000000	43
90.9130000000	38
90.9430000000	39
90.9730000000	51
91.0030000000	34
91.0330000000	45
91.0630000000	35
91.0930000000	36
91.1230000000	37
91.1530000000	49
91.1830000000	29
91.2130000000	45
91.2430000000	51
91.2730000000	44
91.3030000000	35
91.3330000000	39
91.3630000000	48
91.3930000000	34
91.4230000000	41
91.4530000000	38
91.4830000000	42
91.5130000000	45
91.5430000000	35
91.5730000000	38
91.6030000000	45
91.6330000000	46
91.6630000000	39
91.6930000000	33
91.7230000000	35
91.7530000000	25
91.7830000000	36
91.8130000000	45
91.8430000000	43
91.8730000000	40
91.9030000000	23
91.9330000000	35
91.9630000000	34
91.9930000000	41
92.0230000000	40
92.0530000000	40
92.0830000000	42
92.1130000000	38
92.1430000000	44
92.1730000000	32
92.2030000000	42
92.2330000000	52
92.2630000000	41
92.2930000000	32
92.3230000000	30
92.3530000000	42
92.3830000000	35
92.4130000000	39
92.4430000000	41
92.4730000000	58
92.5030000000	41
92.5330000000	55
92.5630000000	41
92.5930000000	48
92.6230000000	58
92.6530000000	43
92.6830000000	40
92.7130000000	40
92.7430000000	30
92.7730000000	40
92.8030000000	38
92.8330000000	33
92.8630000000	59
92.8930000000	42
92.9230000000	37
92.9530000000	40
92.9830000000	37
93.0130000000	34
93.0430000000	42
93.0730000000	40
93.1030000000	40
93.1330000000	54
93.1630000000	49
93.1930000000	49
93.2230000000	54
93.2530000000	42
93.2830000000	42
93.3130000000	53
93.3430000000	39
93.3730000000	51
93.4030000000	46
93.4330000000	46
93.4630000000	31
93.4930000000	39
93.5230000000	36
93.5530000000	36
93.5830000000	37
93.6130000000	37
93.6430000000	44
93.6730000000	39
93.7030000000	41
93.7330000000	29
93.7630000000	39
93.7930000000	48
93.8230000000	39
93.8530000000	42
93.8830000000	41
93.9130000000	39
93.9430000000	44
93.9730000000	31
94.0030000000	56
94.0330000000	37
94.0630000000	42
94.0930000000	54
94.1230000000	37
94.1530000000	39
94.1830000000	35
94.2130000000	37
94.2430000000	46
94.2730000000	39
94.3030000000	38
94.3330000000	30
94.3630000000	42
94.3930000000	41
94.4230000000	47
94.4530000000	48
94.4830000000	44
94.5130000000	46
94.5430000000	50
94.5730000000	50
94.6030000000	43
94.6330000000	52
94.6630000000	58
94.6930000000	69
94.7230000000	87
94.7530000000	74
94.7830000000	57
94.8130000000	55
94.8430000000	54
94.8730000000	48
94.9030000000	44
94.9330000000	50
94.9630000000	58
94.9930000000	52
95.0230000000	38
95.0530000000	38
95.0830000000	43
95.1130000000	33
95.1430000000	53
95.1730000000	49
95.2030000000	49
95.2330000000	44
95.2630000000	33
95.2930000000	48
95.3230000000	46
95.3530000000	42
95.3830000000	40
95.4130000000	45
95.4430000000	38
95.4730000000	32
95.5030000000	41
95.5330000000	43
95.5630000000	45
95.5930000000	46
95.6230000000	39
95.6530000000	37
95.6830000000	38
95.7130000000	41
95.7430000000	41
95.7730000000	38
95.8030000000	41
95.8330000000	35
95.8630000000	43
95.8930000000	37
95.9230000000	34
95.9530000000	45
95.9830000000	47
96.0130000000	37
96.0430000000	36
96.0730000000	38
96.1030000000	37
96.1330000000	39
96.1630000000	41
96.1930000000	52
96.2230000000	44
96.2530000000	47
96.2830000000	34
96.3130000000	42
96.3430000000	37
96.3730000000	33
96.4030000000	45
96.4330000000	46
96.4630000000	36
96.4930000000	35
96.5230000000	39
96.5530000000	39
96.5830000000	45
96.6130000000	47
96.6430000000	47
96.6730000000	48
96.7030000000	28
96.7330000000	43
96.7630000000	43
96.7930000000	47
96.8230000000	46
96.8530000000	37
96.8830000000	39
96.9130000000	40
96.9430000000	35
96.9730000000	42
97.0030000000	42
97.0330000000	39
97.0630000000	52
97.0930000000	34
97.1230000000	42
97.1530000000	41
97.1830000000	47
97.2130000000	52
97.2430000000	41
97.2730000000	46
97.3030000000	35
97.3330000000	25
97.3630000000	34
97.3930000000	48
97.4230000000	45
97.4530000000	33
97.4830000000	33
97.5130000000	38
97.5430000000	50
97.5730000000	35
97.6030000000	40
97.6330000000	34
97.6630000000	44
97.6930000000	37
97.7230000000	36
97.7530000000	32
97.7830000000	49
97.8130000000	50
97.8430000000	39
97.8730000000	33
97.9030000000	38
97.9330000000	35
97.9630000000	44
97.9930000000	37
98.0230000000	49
98.0530000000	42
98.0830000000	41
98.1130000000	33
98.1430000000	49
98.1730000000	38
98.2030000000	39
98.2330000000	38
98.2630000000	49
98.2930000000	33
98.3230000000	44
98.3530000000	40
98.3830000000	34
98.4130000000	38
98.4430000000	40
98.4730000000	42
98.5030000000	40
98.5330000000	41
98.5630000000	40
98.5930000000	49
98.6230000000	42
98.6530000000	33
98.6830000000	42
98.7130000000	41
98.7430000000	31
98.7730000000	33
98.8030000000	43
98.8330000000	45
98.8630000000	32
98.8930000000	38
98.9230000000	37
98.9530000000	46
98.9830000000	33
99.0130000000	35
99.0430000000	29
99.0730000000	25
99.1030000000	33
99.1330000000	38
99.1630000000	36
99.1930000000	29
99.2230000000	48
99.2530000000	29
99.2830000000	37
99.3130000000	27
99.3430000000	45
99.3730000000	34
99.4030000000	31
99.4330000000	36
99.4630000000	38
99.4930000000	45
99.5230000000	37
99.5530000000	43
99.5830000000	38
99.6130000000	42
99.6430000000	45
99.6730000000	44
99.7030000000	33
99.7330000000	30
99.7630000000	45
99.7930000000	38
99.8230000000	42
99.8530000000	34
99.8830000000	45
99.9130000000	33
99.9430000000	38
99.9730000000	30
100.0030000000	26
100.0330000000	38
100.0630000000	42
100.0930000000	35
100.1230000000	39
100.1530000000	40
100.1830000000	35
100.2130000000	38
100.2430000000	41
100.2730000000	34
100.3030000000	40
100.3330000000	39
100.3630000000	42
100.3930000000	50
100.4230000000	40
100.4530000000	32
100.4830000000	43
100.5130000000	34
100.5430000000	46
100.5730000000	34
100.6030000000	38
100.6330000000	39
100.6630000000	38
100.6930000000	29
100.7230000000	30
100.7530000000	37
100.7830000000	39
100.8130000000	42
100.8430000000	36
100.8730000000	43
100.9030000000	28
100.9330000000	33
100.9630000000	33
100.9930000000	29
101.0230000000	30
101.0530000000	28
101.0830000000	31
101.1130000000	45
101.1430000000	32
101.1730000000	46
101.2030000000	41
101.2330000000	37
101.2630000000	38
101.2930000000	39
101.3230000000	34
101.3530000000	29
101.3830000000	40
101.4130000000	42
101.4430000000	38
101.4730000000	34
101.5030000000	40
101.5330000000	34
101.5630000000	29
101.5930000000	33
101.6230000000	34
101.6530000000	39
101.6830000000	44
101.7130000000	39
101.7430000000	36
101.7730000000	35
101.8030000000	33
101.8330000000	27
101.8630000000	33
101.8930000000	39
101.9230000000	43
101.9530000000	40
101.9830000000	41
102.0130000000	46
102.0430000000	44
102.0730000000	34
102.1030000000	31
102.1330000000	45
102.1630000000	38
102.1930000000	30
102.2230000000	36
102.2530000000	33
102.2830000000	31
102.3130000000	38
102.3430000000	38
102.3730000000	40
102.4030000000	30
102.4330000000	35
102.4630000000	35
102.4930000000	37
102.5230000000	50
102.5530000000	40
102.5830000000	55
102.6130000000	43
102.6430000000	36
102.6730000000	31
102.7030000000	45
102.7330000000	25
102.7630000000	24
102.7930000000	35
102.8230000000	54
102.8530000000	36
102.8830000000	35
102.9130000000	45
102.9430000000	33
102.9730000000	32
103.0030000000	42
103.0330000000	40
103.0630000000	34
103.0930000000	39
103.1230000000	42
103.1530000000	53
103.1830000000	50
103.2130000000	31
103.2430000000	31
103.2730000000	52
103.3030000000	58
103.3330000000	44
103.3630000000	62
103.3930000000	45
103.4230000000	26
103.4530000000	38
103.4830000000	40
103.5130000000	30
103.5430000000	39
103.5730000000	49
103.6030000000	45
103.6330000000	47
103.6630000000	43
103.6930000000	44
103.7230000000	38
103.7530000000	35
103.7830000000	44
103.8130000000	45
103.8430000000	37
103.8730000000	33
103.9030000000	38
103.9330000000	38
103.9630000000	42
103.9930000000	34
104.0230000000	45
104.0530000000	32
104.0830000000	38
104.1130000000	27
104.1430000000	44
104.1730000000	49
104.2030000000	42
104.2330000000	39
104.2630000000	38
104.2930000000	55
104.3230000000	36
104.3530000000	37
104.3830000000	47
104.4130000000	44
104.4430000000	41
104.4730000000	52
104.5030000000	44
104.5330000000	33
104.5630000000	45
104.5930000000	33
104.6230000000	40
104.6530000000	40
104.6830000000	35
104.7130000000	43
104.7430000000	41
104.7730000000	41
104.8030000000	34
104.8330000000	41
104.8630000000	47
104.8930000000	36
104.9230000000	32
104.9530000000	44
104.9830000000	40
105.0130000000	32
105.0430000000	33
105.0730000000	38
105.1030000000	31
105.1330000000	36
105.1630000000	39
105.1930000000	29
105.2230000000	39
105.2530000000	33
105.2830000000	39
105.3130000000	35
105.3430000000	35
105.3730000000	43
105.4030000000	44
105.4330000000	31
105.4630000000	28
105.4930000000	32
105.5230000000	33
105.5530000000	32
105.5830000000	23
105.6130000000	37
105.6430000000	38
105.6730000000	31
105.7030000000	38
105.7330000000	42
105.7630000000	43
105.7930000000	36
105.8230000000	35
105.8530000000	43
105.8830000000	29
105.9130000000	39
105.9430000000	34
105.9730000000	45
106.0030000000	38
106.0330000000	25
106.0630000000	28
106.0930000000	32
106.1230000000	34
106.1530000000	32
106.1830000000	48
106.2130000000	33
106.2430000000	30
106.2730000000	28
106.3030000000	30
106.3330000000	34
106.3630000000	40
106.3930000000	37
106.4230000000	32
106.4530000000	32
106.4830000000	46
106.5130000000	41
106.5430000000	39
106.5730000000	38
106.6030000000	46
106.6330000000	51
106.6630000000	37
106.6930000000	45
106.7230000000	35
106.7530000000	41
106.7830000000	33
106.8130000000	34
106.8430000000	41
106.8730000000	33
106.9030000000	26
106.9330000000	31
106.9630000000	40
106.9930000000	43
107.0230000000	31
107.0530000000	34
107.0830000000	44
107.1130000000	40
107.1430000000	44
107.1730000000	40
107.2030000000	42
107.2330000000	47
107.2630000000	35
107.2930000000	37
107.3230000000	37
107.3530000000	28
107.3830000000	35
107.4130000000	35
107.4430000000	47
107.4730000000	39
107.5030000000	39
107.5330000000	36
107.5630000000	33
107.5930000000	40
107.6230000000	35
107.6530000000	39
107.6830000000	28
107.7130000000	25
107.7430000000	36
107.7730000000	34
107.8030000000	40
107.8330000000	34
107.8630000000	26
107.8930000000	37
107.9230000000	37
107.9530000000	33
107.9830000000	30
108.0130000000	27
108.0430000000	38
108.0730000000	34
108.1030000000	32
108.1330000000	37
108.1630000000	37
108.1930000000	35
108.2230000000	28
108.2530000000	36
108.2830000000	42
108.3130000000	40
108.3430000000	44
108.3730000000	45
108.4030000000	38
108.4330000000	38
108.4630000000	38
108.4930000000	49
108.5230000000	36
108.5530000000	34
108.5830000000	37
108.6130000000	47
108.6430000000	28
108.6730000000	39
108.7030000000	36
108.7330000000	30
108.7630000000	39
108.7930000000	33
108.8230000000	30
108.8530000000	32
108.8830000000	45
108.9130000000	38
108.9430000000	38
108.9730000000	28
109.0030000000	27
109.0330000000	40
109.0630000000	31
109.0930000000	44
109.1230000000	38
109.1530000000	23
109.1830000000	42
109.2130000000	37
109.2430000000	41
109.2730000000	28
109.3030000000	40
109.3330000000	40
109.3630000000	45
109.3930000000	40
109.4230000000	44
109.4530000000	38
109.4830000000	47
109.5130000000	42
109.5430000000	34
109.5730000000	44
109.6030000000	42
109.6330000000	36
109.6630000000	40
109.6930000000	41
109.7230000000	49
109.7530000000	42
109.7830000000	45
109.8130000000	34
109.8430000000	54
109.8730000000	43
109.9030000000	52
109.9330000000	35
109.9630000000	47
109.9930000000	37
110.0230000000	43
110.0530000000	38
110.0830000000	39
110.1130000000	54
110.1430000000	27
110.1730000000	31
110.2030000000	43
110.2330000000	37
110.2630000000	41
110.2930000000	43
110.3230000000	47
110.3530000000	35
110.3830000000	33
110.4130000000	34
110.4430000000	18
110.4730000000	48
110.5030000000	39
110.5330000000	42
110.5630000000	37
110.5930000000	37
110.6230000000	35
110.6530000000	47
110.6830000000	37
110.7130000000	30
110.7430000000	40
110.7730000000	38
110.8030000000	40
110.8330000000	36
110.8630000000	46
110.8930000000	45
110.9230000000	44
110.9530000000	32
110.9830000000	33
111.0130000000	35
111.0430000000	44
111.0730000000	45
111.1030000000	34
111.1330000000	34
111.1630000000	39
111.1930000000	40
111.2230000000	41
111.2530000000	50
111.2830000000	45
111.3130000000	33
111.3430000000	45
111.3730000000	32
111.4030000000	44
111.4330000000	35
111.4630000000	31
111.4930000000	47
111.5230000000	31
111.5530000000	37
111.5830000000	29
111.6130000000	33
111.6430000000	38
111.6730000000	42
111.7030000000	25
111.7330000000	36
111.7630000000	28
111.7930000000	31
111.8230000000	32
111.8530000000	32
111.8830000000	38
111.9130000000	35
111.9430000000	37
111.9730000000	31
112.0030000000	40
112.0330000000	48
112.0630000000	34
112.0930000000	33
112.1230000000	47
112.1530000000	43
112.1830000000	46
112.2130000000	30
112.2430000000	40
112.2730000000	38
112.3030000000	45
112.3330000000	44
112.3630000000	29
112.3930000000	34
112.4230000000	33
112.4530000000	28
112.4830000000	34
112.5130000000	44
112.5430000000	36
112.5730000000	38
112.6030000000	40
112.6330000000	32
112.6630000000	31
112.6930000000	35
112.7230000000	36
112.7530000000	41
112.7830000000	45
112.8130000000	38
112.8430000000	35
112.8730000000	41
112.9030000000	39
112.9330000000	44
112.9630000000	38
112.9930000000	37
113.0230000000	32
113.0530000000	51
113.0830000000	35
113.1130000000	30
113.1430000000	37
113.1730000000	42
113.2030000000	26
113.2330000000	34
113.2630000000	41
113.2930000000	36
113.3230000000	36
113.3530000000	28
113.3830000000	34
113.4130000000	38
113.4430000000	38
113.4730000000	47
113.5030000000	37
113.5330000000	34
113.5630000000	46
113.5930000000	36
113.6230000000	37
113.6530000000	36
113.6830000000	36
113.7130000000	33
113.7430000000	26
113.7730000000	39
113.8030000000	32
113.8330000000	26
113.8630000000	33
113.8930000000	41
113.9230000000	38
113.9530000000	33
113.9830000000	26
114.0130000000	29
114.0430000000	37
114.0730000000	23
114.1030000000	31
114.1330000000	38
114.1630000000	39
114.1930000000	37
114.2230000000	25
114.2530000000	32
114.2830000000	39
114.3130000000	32
114.3430000000	50
114.3730000000	41
114.4030000000	37
114.4330000000	38
114.4630000000	1
114.4930000000	1
114.5230000000	1
114.5530000000	1
114.5830000000	1
