0.3130000000	1
0.3430000000	2
0.3730000000	1
0.4030000000	1
0.4330000000	1
0.4630000000	1
0.4930000000	1
0.5230000000	1
0.5530000000	1
0.5830000000	1
0.6130000000	1
0.6430000000	1
0.6730000000	1
0.7030000000	1
0.7330000000	1
0.7630000000	1
0.7930000000	1
0.8230000000	1
0.8530000000	1
0.8830000000	1
0.9130000000	1
0.9430000000	1
0.9730000000	2
1.0030000000	2
1.0330000000	1
1.0630000000	2
1.0930000000	2
1.1230000000	1
1.1530000000	1
1.1830000000	1
1.2130000000	1
1.2430000000	1
1.2730000000	1
1.3030000000	1
1.3330000000	1
1.3630000000	1
1.3930000000	1
1.4230000000	2
1.4530000000	1
1.4830000000	2
1.5130000000	1
1.5430000000	1
1.5730000000	1
1.6030000000	2
1.6330000000	1
1.6630000000	1
1.6930000000	2
1.7230000000	1
1.7530000000	1
1.7830000000	1
1.8130000000	1
1.8430000000	4
1.8730000000	2
1.9030000000	1
1.9330000000	1
1.9630000000	1
1.9930000000	1
2.0230000000	1
2.0530000000	1
2.0830000000	1
2.1130000000	1
2.1430000000	2
2.1730000000	2
2.2030000000	1
2.2330000000	1
2.2630000000	1
2.2930000000	1
2.3230000000	2
2.3530000000	2
2.3830000000	1
2.4130000000	2
2.4430000000	2
2.4730000000	1
2.5030000000	1
2.5330000000	1
2.5630000000	1
2.5930000000	1
2.6230000000	2
2.6530000000	2
2.6830000000	1
2.7130000000	1
2.7430000000	2
2.7730000000	1
2.8030000000	1
2.8330000000	1
2.8630000000	2
2.8930000000	1
2.9230000000	1
2.9530000000	2
2.9830000000	4
3.0130000000	0
3.0430000000	2
3.0730000000	3
3.1030000000	1
3.1330000000	2
3.1630000000	3
3.1930000000	1
3.2230000000	1
3.2530000000	1
3.2830000000	3
3.3130000000	2
3.3430000000	3
3.3730000000	1
3.4030000000	2
3.4330000000	2
3.4630000000	4
3.4930000000	1
3.5230000000	1
3.5530000000	1
3.5830000000	1
3.6130000000	3
3.6430000000	3
3.6730000000	1
3.7030000000	1
3.7330000000	2
3.7630000000	3
3.7930000000	2
3.8230000000	3
3.8530000000	2
3.8830000000	5
3.9130000000	1
3.9430000000	3
3.9730000000	2
4.0030000000	3
4.0330000000	3
4.0630000000	2
4.0930000000	2
4.1230000000	5
4.1530000000	5
4.1830000000	2
4.2130000000	5
4.2430000000	4
4.2730000000	2
4.3030000000	5
4.3330000000	1
4.3630000000	5
4.3930000000	6
4.4230000000	6
4.4530000000	13
4.4830000000	14
4.5130000000	18
4.5430000000	40
4.5730000000	82
4.6030000000	91
4.6330000000	106
4.6630000000	106
4.6930000000	116
4.7230000000	127
4.7530000000	136
4.7830000000	149
4.8130000000	139
4.8430000000	130
4.8730000000	146
4.9030000000	135
4.9330000000	149
4.9630000000	135
4.9930000000	133
5.0230000000	137
5.0530000000	162
5.0830000000	138
5.1130000000	147
5.1430000000	137
5.1730000000	161
5.2030000000	141
5.2330000000	138
5.2630000000	128
5.2930000000	147
5.3230000000	144
5.3530000000	155
5.3830000000	145
5.4130000000	157
5.4430000000	153
5.4730000000	148
5.5030000000	123
5.5330000000	146
5.5630000000	157
5.5930000000	157
5.6230000000	134
5.6530000000	146
5.6830000000	169
5.7130000000	147
5.7430000000	150
5.7730000000	160
5.8030000000	151
5.8330000000	146
5.8630000000	128
5.8930000000	130
5.9230000000	136
5.9530000000	162
5.9830000000	139
6.0130000000	156
6.0430000000	145
6.0730000000	139
6.1030000000	143
6.1330000000	129
6.1630000000	137
6.1930000000	142
6.2230000000	162
6.2530000000	142
6.2830000000	122
6.3130000000	138
6.3430000000	160
6.3730000000	148
6.4030000000	158
6.4330000000	132
6.4630000000	154
6.4930000000	148
6.5230000000	126
6.5530000000	160
6.5830000000	142
6.6130000000	144
6.6430000000	131
6.6730000000	139
6.7030000000	174
6.7330000000	150
6.7630000000	151
6.7930000000	146
6.8230000000	151
6.8530000000	157
6.8830000000	157
6.9130000000	152
6.9430000000	151
6.9730000000	137
7.0030000000	156
7.0330000000	182
7.0630000000	162
7.0930000000	160
7.1230000000	145
7.1530000000	152
7.1830000000	138
7.2130000000	132
7.2430000000	159
7.2730000000	162
7.3030000000	135
7.3330000000	141
7.3630000000	145
7.3930000000	148
7.4230000000	131
7.4530000000	148
7.4830000000	151
7.5130000000	129
7.5430000000	138
7.5730000000	149
7.6030000000	153
7.6330000000	149
7.6630000000	165
7.6930000000	132
7.7230000000	130
7.7530000000	147
7.7830000000	142
7.8130000000	157
7.8430000000	144
7.8730000000	154
7.9030000000	159
7.9330000000	135
7.9630000000	137
7.9930000000	150
8.0230000000	157
8.0530000000	137
8.0830000000	140
8.1130000000	142
8.1430000000	150
8.1730000000	148
8.2030000000	141
8.2330000000	147
8.2630000000	130
8.2930000000	122
8.3230000000	129
8.3530000000	139
8.3830000000	130
8.4130000000	153
8.4430000000	157
8.4730000000	129
8.5030000000	155
8.5330000000	159
8.5630000000	147
8.5930000000	129
8.6230000000	138
8.6530000000	128
8.6830000000	130
8.7130000000	136
8.7430000000	148
8.7730000000	133
8.8030000000	125
8.8330000000	141
8.8630000000	119
8.8930000000	144
8.9230000000	147
8.9530000000	148
8.9830000000	158
9.0130000000	156
9.0430000000	153
9.0730000000	134
9.1030000000	142
9.1330000000	141
9.1630000000	163
9.1930000000	135
9.2230000000	149
9.2530000000	139
9.2830000000	136
9.3130000000	137
9.3430000000	135
9.3730000000	121
9.4030000000	137
9.4330000000	143
9.4630000000	138
9.4930000000	135
9.5230000000	134
9.5530000000	140
9.5830000000	145
9.6130000000	165
9.6430000000	174
9.6730000000	142
9.7030000000	167
9.7330000000	150
9.7630000000	168
9.7930000000	155
9.8230000000	161
9.8530000000	135
9.8830000000	149
9.9130000000	142
9.9430000000	169
9.9730000000	162
10.0030000000	118
10.0330000000	160
10.0630000000	144
10.0930000000	140
10.1230000000	140
10.1530000000	146
10.1830000000	158
10.2130000000	148
10.2430000000	142
10.2730000000	132
10.3030000000	153
10.3330000000	158
10.3630000000	152
10.3930000000	136
10.4230000000	160
10.4530000000	154
10.4830000000	158
10.5130000000	135
10.5430000000	154
10.5730000000	137
10.6030000000	140
10.6330000000	127
10.6630000000	125
10.6930000000	157
10.7230000000	130
10.7530000000	141
10.7830000000	175
10.8130000000	148
10.8430000000	149
10.8730000000	156
10.9030000000	137
10.9330000000	145
10.9630000000	118
10.9930000000	143
11.0230000000	153
11.0530000000	148
11.0830000000	154
11.1130000000	149
11.1430000000	147
11.1730000000	137
11.2030000000	132
11.2330000000	145
11.2630000000	167
11.2930000000	151
11.3230000000	140
11.3530000000	139
11.3830000000	153
11.4130000000	151
11.4430000000	154
11.4730000000	122
11.5030000000	145
11.5330000000	145
11.5630000000	133
11.5930000000	134
11.6230000000	153
11.6530000000	140
11.6830000000	150
11.7130000000	145
11.7430000000	143
11.7730000000	150
11.8030000000	145
11.8330000000	141
11.8630000000	137
11.8930000000	151
11.9230000000	127
11.9530000000	149
11.9830000000	149
12.0130000000	150
12.0430000000	140
12.0730000000	136
12.1030000000	163
12.1330000000	146
12.1630000000	142
12.1930000000	140
12.2230000000	138
12.2530000000	145
12.2830000000	153
12.3130000000	163
12.3430000000	153
12.3730000000	154
12.4030000000	165
12.4330000000	166
12.4630000000	145
12.4930000000	137
12.5230000000	127
12.5530000000	139
12.5830000000	148
12.6130000000	130
12.6430000000	143
12.6730000000	148
12.7030000000	142
12.7330000000	131
12.7630000000	133
12.7930000000	143
12.8230000000	141
12.8530000000	131
12.8830000000	146
12.9130000000	153
12.9430000000	153
12.9730000000	152
13.0030000000	150
13.0330000000	145
13.0630000000	130
13.0930000000	136
13.1230000000	144
13.1530000000	140
13.1830000000	148
13.2130000000	148
13.2430000000	153
13.2730000000	145
13.3030000000	165
13.3330000000	138
13.3630000000	139
13.3930000000	158
13.4230000000	132
13.4530000000	152
13.4830000000	138
13.5130000000	131
13.5430000000	155
13.5730000000	162
13.6030000000	122
13.6330000000	150
13.6630000000	139
13.6930000000	144
13.7230000000	171
13.7530000000	161
13.7830000000	143
13.8130000000	136
13.8430000000	168
13.8730000000	126
13.9030000000	141
13.9330000000	150
13.9630000000	158
13.9930000000	128
14.0230000000	143
14.0530000000	127
14.0830000000	134
14.1130000000	156
14.1430000000	170
14.1730000000	133
14.2030000000	151
14.2330000000	159
14.2630000000	125
14.2930000000	147
14.3230000000	139
14.3530000000	156
14.3830000000	157
14.4130000000	130
14.4430000000	139
14.4730000000	134
14.5030000000	143
14.5330000000	157
14.5630000000	156
14.5930000000	152
14.6230000000	157
14.6530000000	174
14.6830000000	173
14.7130000000	130
14.7430000000	134
14.7730000000	148
14.8030000000	157
14.8330000000	164
14.8630000000	158
14.8930000000	154
14.9230000000	143
14.9530000000	153
14.9830000000	143
15.0130000000	119
15.0430000000	143
15.0730000000	159
15.1030000000	167
15.1330000000	155
15.1630000000	146
15.1930000000	149
15.2230000000	163
15.2530000000	168
15.2830000000	131
15.3130000000	154
15.3430000000	169
15.3730000000	154
15.4030000000	170
15.4330000000	134
15.4630000000	157
15.4930000000	162
15.5230000000	139
15.5530000000	145
15.5830000000	148
15.6130000000	141
15.6430000000	138
15.6730000000	131
15.7030000000	154
15.7330000000	138
15.7630000000	151
15.7930000000	156
15.8230000000	155
15.8530000000	133
15.8830000000	132
15.9130000000	161
15.9430000000	155
15.9730000000	148
16.0030000000	146
16.0330000000	140
16.0630000000	139
16.0930000000	136
16.1230000000	167
16.1530000000	154
16.1830000000	158
16.2130000000	127
16.2430000000	132
16.2730000000	126
16.3030000000	128
16.3330000000	153
16.3630000000	137
16.3930000000	149
16.4230000000	144
16.4530000000	142
16.4830000000	163
16.5130000000	133
16.5430000000	151
16.5730000000	118
16.6030000000	113
16.6330000000	154
16.6630000000	150
16.6930000000	147
16.7230000000	138
16.7530000000	147
16.7830000000	140
16.8130000000	141
16.8430000000	145
16.8730000000	135
16.9030000000	143
16.9330000000	144
16.9630000000	152
16.9930000000	162
17.0230000000	155
17.0530000000	143
17.0830000000	138
17.1130000000	152
17.1430000000	154
17.1730000000	146
17.2030000000	147
17.2330000000	131
17.2630000000	136
17.2930000000	147
17.3230000000	155
17.3530000000	148
17.3830000000	137
17.4130000000	128
17.4430000000	134
17.4730000000	138
17.5030000000	146
17.5330000000	165
17.5630000000	152
17.5930000000	145
17.6230000000	164
17.6530000000	145
17.6830000000	140
17.7130000000	144
17.7430000000	147
17.7730000000	147
17.8030000000	125
17.8330000000	122
17.8630000000	139
17.8930000000	144
17.9230000000	147
17.9530000000	151
17.9830000000	141
18.0130000000	151
18.0430000000	156
18.0730000000	120
18.1030000000	142
18.1330000000	155
18.1630000000	145
18.1930000000	148
18.2230000000	152
18.2530000000	130
18.2830000000	110
18.3130000000	143
18.3430000000	140
18.3730000000	177
18.4030000000	139
18.4330000000	135
18.4630000000	134
18.4930000000	144
18.5230000000	159
18.5530000000	144
18.5830000000	127
18.6130000000	141
18.6430000000	143
18.6730000000	137
18.7030000000	136
18.7330000000	137
18.7630000000	141
18.7930000000	142
18.8230000000	141
18.8530000000	140
18.8830000000	140
18.9130000000	133
18.9430000000	144
18.9730000000	155
19.0030000000	137
19.0330000000	147
19.0630000000	136
19.0930000000	144
19.1230000000	142
19.1530000000	168
19.1830000000	150
19.2130000000	139
19.2430000000	145
19.2730000000	160
19.3030000000	142
19.3330000000	152
19.3630000000	152
19.3930000000	151
19.4230000000	188
19.4530000000	125
19.4830000000	137
19.5130000000	157
19.5430000000	155
19.5730000000	150
19.6030000000	145
19.6330000000	134
19.6630000000	156
19.6930000000	149
19.7230000000	157
19.7530000000	144
19.7830000000	146
19.8130000000	157
19.8430000000	139
19.8730000000	149
19.9030000000	149
19.9330000000	153
19.9630000000	166
19.9930000000	135
20.0230000000	139
20.0530000000	146
20.0830000000	135
20.1130000000	150
20.1430000000	160
20.1730000000	150
20.2030000000	173
20.2330000000	133
20.2630000000	137
20.2930000000	156
20.3230000000	124
20.3530000000	161
20.3830000000	145
20.4130000000	158
20.4430000000	166
20.4730000000	172
20.5030000000	159
20.5330000000	156
20.5630000000	190
20.5930000000	196
20.6230000000	177
20.6530000000	201
20.6830000000	235
20.7130000000	336
20.7430000000	418
20.7730000000	560
20.8030000000	719
20.8330000000	933
20.8630000000	1014
20.8930000000	956
20.9230000000	776
20.9530000000	564
20.9830000000	412
21.0130000000	273
21.0430000000	210
21.0730000000	199
21.1030000000	188
21.1330000000	134
21.1630000000	150
21.1930000000	173
21.2230000000	158
21.2530000000	152
21.2830000000	159
21.3130000000	155
21.3430000000	153
21.3730000000	152
21.4030000000	137
21.4330000000	155
21.4630000000	141
21.4930000000	150
21.5230000000	155
21.5530000000	166
21.5830000000	155
21.6130000000	144
21.6430000000	158
21.6730000000	156
21.7030000000	157
21.7330000000	160
21.7630000000	153
21.7930000000	159
21.8230000000	186
21.8530000000	160
21.8830000000	158
21.9130000000	154
21.9430000000	182
21.9730000000	172
22.0030000000	168
22.0330000000	164
22.0630000000	166
22.0930000000	157
22.1230000000	153
22.1530000000	174
22.1830000000	150
22.2130000000	149
22.2430000000	175
22.2730000000	179
22.3030000000	161
22.3330000000	154
22.3630000000	167
22.3930000000	167
22.4230000000	140
22.4530000000	161
22.4830000000	167
22.5130000000	157
22.5430000000	163
22.5730000000	161
22.6030000000	163
22.6330000000	165
22.6630000000	175
22.6930000000	175
22.7230000000	166
22.7530000000	159
22.7830000000	147
22.8130000000	156
22.8430000000	170
22.8730000000	169
22.9030000000	150
22.9330000000	170
22.9630000000	179
22.9930000000	150
23.0230000000	148
23.0530000000	151
23.0830000000	173
23.1130000000	156
23.1430000000	160
23.1730000000	195
23.2030000000	177
23.2330000000	143
23.2630000000	157
23.2930000000	189
23.3230000000	200
23.3530000000	171
23.3830000000	159
23.4130000000	163
23.4430000000	172
23.4730000000	188
23.5030000000	152
23.5330000000	151
23.5630000000	154
23.5930000000	167
23.6230000000	155
23.6530000000	169
23.6830000000	181
23.7130000000	198
23.7430000000	160
23.7730000000	161
23.8030000000	163
23.8330000000	178
23.8630000000	168
23.8930000000	166
23.9230000000	172
23.9530000000	174
23.9830000000	163
24.0130000000	160
24.0430000000	156
24.0730000000	165
24.1030000000	151
24.1330000000	158
24.1630000000	143
24.1930000000	182
24.2230000000	202
24.2530000000	189
24.2830000000	172
24.3130000000	165
24.3430000000	174
24.3730000000	154
24.4030000000	175
24.4330000000	144
24.4630000000	154
24.4930000000	173
24.5230000000	181
24.5530000000	192
24.5830000000	151
24.6130000000	169
24.6430000000	205
24.6730000000	174
24.7030000000	175
24.7330000000	154
24.7630000000	170
24.7930000000	160
24.8230000000	172
24.8530000000	144
24.8830000000	157
24.9130000000	158
24.9430000000	188
24.9730000000	137
25.0030000000	168
25.0330000000	145
25.0630000000	146
25.0930000000	145
25.1230000000	174
25.1530000000	179
25.1830000000	154
25.2130000000	184
25.2430000000	197
25.2730000000	157
25.3030000000	161
25.3330000000	180
25.3630000000	181
25.3930000000	155
25.4230000000	170
25.4530000000	158
25.4830000000	164
25.5130000000	163
25.5430000000	171
25.5730000000	158
25.6030000000	152
25.6330000000	166
25.6630000000	169
25.6930000000	189
25.7230000000	175
25.7530000000	199
25.7830000000	184
25.8130000000	194
25.8430000000	232
25.8730000000	269
25.9030000000	349
25.9330000000	461
25.9630000000	628
25.9930000000	823
26.0230000000	1154
26.0530000000	1487
26.0830000000	1700
26.1130000000	1480
26.1430000000	1105
26.1730000000	837
26.2030000000	582
26.2330000000	381
26.2630000000	270
26.2930000000	218
26.3230000000	185
26.3530000000	162
26.3830000000	186
26.4130000000	155
26.4430000000	148
26.4730000000	164
26.5030000000	152
26.5330000000	165
26.5630000000	174
26.5930000000	179
26.6230000000	172
26.6530000000	143
26.6830000000	147
26.7130000000	146
26.7430000000	143
26.7730000000	146
26.8030000000	141
26.8330000000	130
26.8630000000	141
26.8930000000	141
26.9230000000	135
26.9530000000	147
26.9830000000	142
27.0130000000	137
27.0430000000	131
27.0730000000	123
27.1030000000	129
27.1330000000	153
27.1630000000	152
27.1930000000	126
27.2230000000	150
27.2530000000	152
27.2830000000	143
27.3130000000	119
27.3430000000	143
27.3730000000	132
27.4030000000	140
27.4330000000	140
27.4630000000	121
27.4930000000	164
27.5230000000	136
27.5530000000	138
27.5830000000	145
27.6130000000	166
27.6430000000	129
27.6730000000	133
27.7030000000	143
27.7330000000	140
27.7630000000	115
27.7930000000	136
27.8230000000	140
27.8530000000	129
27.8830000000	136
27.9130000000	125
27.9430000000	145
27.9730000000	153
28.0030000000	134
28.0330000000	133
28.0630000000	160
28.0930000000	133
28.1230000000	148
28.1530000000	146
28.1830000000	181
28.2130000000	184
28.2430000000	213
28.2730000000	222
28.3030000000	198
28.3330000000	187
28.3630000000	179
28.3930000000	135
28.4230000000	161
28.4530000000	158
28.4830000000	131
28.5130000000	127
28.5430000000	146
28.5730000000	139
28.6030000000	140
28.6330000000	129
28.6630000000	139
28.6930000000	133
28.7230000000	128
28.7530000000	137
28.7830000000	133
28.8130000000	150
28.8430000000	139
28.8730000000	117
28.9030000000	131
28.9330000000	135
28.9630000000	116
28.9930000000	117
29.0230000000	134
29.0530000000	145
29.0830000000	120
29.1130000000	124
29.1430000000	150
29.1730000000	113
29.2030000000	129
29.2330000000	130
29.2630000000	122
29.2930000000	128
29.3230000000	141
29.3530000000	133
29.3830000000	121
29.4130000000	134
29.4430000000	123
29.4730000000	130
29.5030000000	120
29.5330000000	131
29.5630000000	119
29.5930000000	118
29.6230000000	129
29.6530000000	114
29.6830000000	118
29.7130000000	137
29.7430000000	117
29.7730000000	113
29.8030000000	120
29.8330000000	134
29.8630000000	126
29.8930000000	117
29.9230000000	120
29.9530000000	109
29.9830000000	126
30.0130000000	118
30.0430000000	122
30.0730000000	109
30.1030000000	121
30.1330000000	138
30.1630000000	99
30.1930000000	105
30.2230000000	106
30.2530000000	119
30.2830000000	126
30.3130000000	135
30.3430000000	114
30.3730000000	123
30.4030000000	96
30.4330000000	115
30.4630000000	106
30.4930000000	114
30.5230000000	118
30.5530000000	114
30.5830000000	111
30.6130000000	121
30.6430000000	117
30.6730000000	131
30.7030000000	107
30.7330000000	115
30.7630000000	119
30.7930000000	114
30.8230000000	105
30.8530000000	119
30.8830000000	115
30.9130000000	121
30.9430000000	128
30.9730000000	122
31.0030000000	123
31.0330000000	114
31.0630000000	105
31.0930000000	123
31.1230000000	119
31.1530000000	122
31.1830000000	100
31.2130000000	127
31.2430000000	119
31.2730000000	124
31.3030000000	123
31.3330000000	119
31.3630000000	118
31.3930000000	111
31.4230000000	94
31.4530000000	123
31.4830000000	109
31.5130000000	102
31.5430000000	111
31.5730000000	112
31.6030000000	97
31.6330000000	112
31.6630000000	99
31.6930000000	102
31.7230000000	90
31.7530000000	104
31.7830000000	108
31.8130000000	117
31.8430000000	107
31.8730000000	97
31.9030000000	91
31.9330000000	104
31.9630000000	121
31.9930000000	96
32.0230000000	96
32.0530000000	101
32.0830000000	102
32.1130000000	112
32.1430000000	97
32.1730000000	106
32.2030000000	94
32.2330000000	88
32.2630000000	107
32.2930000000	111
32.3230000000	89
32.3530000000	100
32.3830000000	84
32.4130000000	108
32.4430000000	107
32.4730000000	115
32.5030000000	120
32.5330000000	105
32.5630000000	96
32.5930000000	83
32.6230000000	124
32.6530000000	113
32.6830000000	104
32.7130000000	99
32.7430000000	100
32.7730000000	101
32.8030000000	107
32.8330000000	107
32.8630000000	93
32.8930000000	108
32.9230000000	104
32.9530000000	126
32.9830000000	106
33.0130000000	97
33.0430000000	123
33.0730000000	103
33.1030000000	84
33.1330000000	120
33.1630000000	123
33.1930000000	105
33.2230000000	105
33.2530000000	117
33.2830000000	147
33.3130000000	147
33.3430000000	135
33.3730000000	169
33.4030000000	184
33.4330000000	240
33.4630000000	367
33.4930000000	549
33.5230000000	824
33.5530000000	1223
33.5830000000	1692
33.6130000000	2405
33.6430000000	2913
33.6730000000	2822
33.7030000000	2329
33.7330000000	1722
33.7630000000	1211
33.7930000000	731
33.8230000000	466
33.8530000000	303
33.8830000000	214
33.9130000000	163
33.9430000000	131
33.9730000000	122
34.0030000000	128
34.0330000000	114
34.0630000000	105
34.0930000000	112
34.1230000000	114
34.1530000000	111
34.1830000000	104
34.2130000000	92
34.2430000000	99
34.2730000000	88
34.3030000000	84
34.3330000000	93
34.3630000000	97
34.3930000000	100
34.4230000000	101
34.4530000000	89
34.4830000000	105
34.5130000000	96
34.5430000000	95
34.5730000000	91
34.6030000000	108
34.6330000000	97
34.6630000000	101
34.6930000000	111
34.7230000000	91
34.7530000000	113
34.7830000000	102
34.8130000000	92
34.8430000000	98
34.8730000000	87
34.9030000000	84
34.9330000000	102
34.9630000000	89
34.9930000000	97
35.0230000000	89
35.0530000000	89
35.0830000000	83
35.1130000000	83
35.1430000000	95
35.1730000000	106
35.2030000000	86
35.2330000000	91
35.2630000000	78
35.2930000000	107
35.3230000000	97
35.3530000000	86
35.3830000000	87
35.4130000000	91
35.4430000000	91
35.4730000000	87
35.5030000000	86
35.5330000000	107
35.5630000000	99
35.5930000000	116
35.6230000000	106
35.6530000000	86
35.6830000000	86
35.7130000000	93
35.7430000000	104
35.7730000000	89
35.8030000000	90
35.8330000000	102
35.8630000000	105
35.8930000000	105
35.9230000000	109
35.9530000000	99
35.9830000000	122
36.0130000000	126
36.0430000000	164
36.0730000000	198
36.1030000000	235
36.1330000000	296
36.1630000000	279
36.1930000000	233
36.2230000000	206
36.2530000000	187
36.2830000000	151
36.3130000000	122
36.3430000000	92
36.3730000000	95
36.4030000000	100
36.4330000000	102
36.4630000000	88
36.4930000000	97
36.5230000000	95
36.5530000000	80
36.5830000000	83
36.6130000000	88
36.6430000000	92
36.6730000000	75
36.7030000000	81
36.7330000000	79
36.7630000000	86
36.7930000000	92
36.8230000000	94
36.8530000000	95
36.8830000000	95
36.9130000000	88
36.9430000000	90
36.9730000000	97
37.0030000000	93
37.0330000000	83
37.0630000000	88
37.0930000000	91
37.1230000000	83
37.1530000000	88
37.1830000000	83
37.2130000000	78
37.2430000000	95
37.2730000000	102
37.3030000000	97
37.3330000000	78
37.3630000000	92
37.3930000000	92
37.4230000000	87
37.4530000000	111
37.4830000000	96
37.5130000000	84
37.5430000000	86
37.5730000000	100
37.6030000000	91
37.6330000000	89
37.6630000000	92
37.6930000000	108
37.7230000000	107
37.7530000000	97
37.7830000000	97
37.8130000000	99
37.8430000000	108
37.8730000000	106
37.9030000000	98
37.9330000000	128
37.9630000000	120
37.9930000000	145
38.0230000000	192
38.0530000000	229
38.0830000000	311
38.1130000000	491
38.1430000000	793
38.1730000000	1248
38.2030000000	1758
38.2330000000	2437
38.2630000000	3045
38.2930000000	3258
38.3230000000	2883
38.3530000000	2258
38.3830000000	1614
38.4130000000	1083
38.4430000000	745
38.4730000000	464
38.5030000000	298
38.5330000000	212
38.5630000000	168
38.5930000000	152
38.6230000000	115
38.6530000000	107
38.6830000000	109
38.7130000000	107
38.7430000000	103
38.7730000000	93
38.8030000000	96
38.8330000000	103
38.8630000000	99
38.8930000000	95
38.9230000000	94
38.9530000000	102
38.9830000000	104
39.0130000000	86
39.0430000000	78
39.0730000000	75
39.1030000000	104
39.1330000000	98
39.1630000000	99
39.1930000000	100
39.2230000000	87
39.2530000000	92
39.2830000000	90
39.3130000000	83
39.3430000000	85
39.3730000000	75
39.4030000000	88
39.4330000000	85
39.4630000000	87
39.4930000000	76
39.5230000000	90
39.5530000000	91
39.5830000000	90
39.6130000000	86
39.6430000000	80
39.6730000000	84
39.7030000000	88
39.7330000000	84
39.7630000000	80
39.7930000000	67
39.8230000000	81
39.8530000000	66
39.8830000000	75
39.9130000000	80
39.9430000000	73
39.9730000000	80
40.0030000000	75
40.0330000000	78
40.0630000000	93
40.0930000000	76
40.1230000000	78
40.1530000000	59
40.1830000000	74
40.2130000000	65
40.2430000000	85
40.2730000000	79
40.3030000000	74
40.3330000000	79
40.3630000000	67
40.3930000000	81
40.4230000000	78
40.4530000000	79
40.4830000000	84
40.5130000000	67
40.5430000000	84
40.5730000000	55
40.6030000000	61
40.6330000000	75
40.6630000000	85
40.6930000000	88
40.7230000000	76
40.7530000000	59
40.7830000000	83
40.8130000000	89
40.8430000000	81
40.8730000000	81
40.9030000000	66
40.9330000000	82
40.9630000000	78
40.9930000000	73
41.0230000000	69
41.0530000000	76
41.0830000000	83
41.1130000000	75
41.1430000000	74
41.1730000000	84
41.2030000000	75
41.2330000000	70
41.2630000000	70
41.2930000000	80
41.3230000000	81
41.3530000000	78
41.3830000000	90
41.4130000000	70
41.4430000000	78
41.4730000000	81
41.5030000000	87
41.5330000000	81
41.5630000000	68
41.5930000000	77
41.6230000000	76
41.6530000000	89
41.6830000000	70
41.7130000000	74
41.7430000000	66
41.7730000000	71
41.8030000000	93
41.8330000000	109
41.8630000000	91
41.8930000000	88
41.9230000000	98
41.9530000000	104
41.9830000000	139
42.0130000000	152
42.0430000000	236
42.0730000000	312
42.1030000000	308
42.1330000000	303
42.1630000000	274
42.1930000000	248
42.2230000000	209
42.2530000000	164
42.2830000000	129
42.3130000000	93
42.3430000000	90
42.3730000000	97
42.4030000000	96
42.4330000000	106
42.4630000000	97
42.4930000000	89
42.5230000000	89
42.5530000000	82
42.5830000000	92
42.6130000000	94
42.6430000000	76
42.6730000000	68
42.7030000000	73
42.7330000000	72
42.7630000000	73
42.7930000000	84
42.8230000000	73
42.8530000000	69
42.8830000000	84
42.9130000000	80
42.9430000000	72
42.9730000000	68
43.0030000000	81
43.0330000000	67
43.0630000000	57
43.0930000000	67
43.1230000000	77
43.1530000000	78
43.1830000000	89
43.2130000000	75
43.2430000000	75
43.2730000000	59
43.3030000000	66
43.3330000000	68
43.3630000000	60
43.3930000000	62
43.4230000000	82
43.4530000000	67
43.4830000000	71
43.5130000000	76
43.5430000000	73
43.5730000000	61
43.6030000000	69
43.6330000000	72
43.6630000000	72
43.6930000000	62
43.7230000000	79
43.7530000000	91
43.7830000000	80
43.8130000000	100
43.8430000000	104
43.8730000000	125
43.9030000000	137
43.9330000000	185
43.9630000000	220
43.9930000000	251
44.0230000000	259
44.0530000000	250
44.0830000000	195
44.1130000000	176
44.1430000000	165
44.1730000000	120
44.2030000000	101
44.2330000000	78
44.2630000000	81
44.2930000000	72
44.3230000000	78
44.3530000000	80
44.3830000000	68
44.4130000000	89
44.4430000000	79
44.4730000000	72
44.5030000000	62
44.5330000000	67
44.5630000000	81
44.5930000000	69
44.6230000000	83
44.6530000000	60
44.6830000000	66
44.7130000000	52
44.7430000000	59
44.7730000000	62
44.8030000000	84
44.8330000000	75
44.8630000000	75
44.8930000000	71
44.9230000000	84
44.9530000000	78
44.9830000000	74
45.0130000000	69
45.0430000000	76
45.0730000000	71
45.1030000000	72
45.1330000000	54
45.1630000000	73
45.1930000000	69
45.2230000000	54
45.2530000000	67
45.2830000000	67
45.3130000000	64
45.3430000000	67
45.3730000000	69
45.4030000000	60
45.4330000000	62
45.4630000000	63
45.4930000000	68
45.5230000000	59
45.5530000000	63
45.5830000000	75
45.6130000000	65
45.6430000000	67
45.6730000000	57
45.7030000000	57
45.7330000000	74
45.7630000000	62
45.7930000000	56
45.8230000000	82
45.8530000000	66
45.8830000000	68
45.9130000000	83
45.9430000000	69
45.9730000000	63
46.0030000000	49
46.0330000000	71
46.0630000000	64
46.0930000000	63
46.1230000000	76
46.1530000000	78
46.1830000000	89
46.2130000000	91
46.2430000000	84
46.2730000000	85
46.3030000000	132
46.3330000000	130
46.3630000000	227
46.3930000000	331
46.4230000000	454
46.4530000000	625
46.4830000000	700
46.5130000000	876
46.5430000000	913
46.5730000000	892
46.6030000000	778
46.6330000000	684
46.6630000000	557
46.6930000000	422
46.7230000000	399
46.7530000000	391
46.7830000000	433
46.8130000000	565
46.8430000000	600
46.8730000000	633
46.9030000000	541
46.9330000000	514
46.9630000000	404
46.9930000000	295
47.0230000000	199
47.0530000000	164
47.0830000000	128
47.1130000000	106
47.1430000000	86
47.1730000000	90
47.2030000000	80
47.2330000000	75
47.2630000000	70
47.2930000000	66
47.3230000000	67
47.3530000000	62
47.3830000000	49
47.4130000000	65
47.4430000000	65
47.4730000000	67
47.5030000000	65
47.5330000000	69
47.5630000000	62
47.5930000000	58
47.6230000000	67
47.6530000000	61
47.6830000000	54
47.7130000000	55
47.7430000000	60
47.7730000000	59
47.8030000000	62
47.8330000000	56
47.8630000000	58
47.8930000000	52
47.9230000000	61
47.9530000000	74
47.9830000000	63
48.0130000000	60
48.0430000000	46
48.0730000000	69
48.1030000000	55
48.1330000000	61
48.1630000000	64
48.1930000000	52
48.2230000000	47
48.2530000000	44
48.2830000000	58
48.3130000000	54
48.3430000000	57
48.3730000000	57
48.4030000000	61
48.4330000000	57
48.4630000000	59
48.4930000000	57
48.5230000000	55
48.5530000000	48
48.5830000000	50
48.6130000000	49
48.6430000000	51
48.6730000000	46
48.7030000000	53
48.7330000000	58
48.7630000000	54
48.7930000000	52
48.8230000000	47
48.8530000000	51
48.8830000000	52
48.9130000000	53
48.9430000000	50
48.9730000000	48
49.0030000000	51
49.0330000000	52
49.0630000000	50
49.0930000000	40
49.1230000000	63
49.1530000000	65
49.1830000000	42
49.2130000000	52
49.2430000000	55
49.2730000000	61
49.3030000000	62
49.3330000000	44
49.3630000000	59
49.3930000000	51
49.4230000000	54
49.4530000000	57
49.4830000000	60
49.5130000000	44
49.5430000000	45
49.5730000000	57
49.6030000000	50
49.6330000000	52
49.6630000000	49
49.6930000000	56
49.7230000000	52
49.7530000000	61
49.7830000000	55
49.8130000000	45
49.8430000000	57
49.8730000000	44
49.9030000000	61
49.9330000000	60
49.9630000000	50
49.9930000000	56
50.0230000000	57
50.0530000000	49
50.0830000000	48
50.1130000000	44
50.1430000000	47
50.1730000000	55
50.2030000000	55
50.2330000000	51
50.2630000000	48
50.2930000000	46
50.3230000000	57
50.3530000000	64
50.3830000000	66
50.4130000000	55
50.4430000000	81
50.4730000000	89
50.5030000000	91
50.5330000000	106
50.5630000000	117
50.5930000000	97
50.6230000000	103
50.6530000000	82
50.6830000000	72
50.7130000000	77
50.7430000000	64
50.7730000000	47
50.8030000000	59
50.8330000000	58
50.8630000000	51
50.8930000000	61
50.9230000000	60
50.9530000000	55
50.9830000000	49
51.0130000000	57
51.0430000000	52
51.0730000000	53
51.1030000000	50
51.1330000000	56
51.1630000000	52
51.1930000000	50
51.2230000000	53
51.2530000000	45
51.2830000000	54
51.3130000000	52
51.3430000000	44
51.3730000000	47
51.4030000000	45
51.4330000000	48
51.4630000000	44
51.4930000000	44
51.5230000000	52
51.5530000000	48
51.5830000000	48
51.6130000000	41
51.6430000000	34
51.6730000000	47
51.7030000000	38
51.7330000000	52
51.7630000000	54
51.7930000000	38
51.8230000000	52
51.8530000000	45
51.8830000000	39
51.9130000000	46
51.9430000000	56
51.9730000000	49
52.0030000000	49
52.0330000000	46
52.0630000000	34
52.0930000000	61
52.1230000000	40
52.1530000000	48
52.1830000000	41
52.2130000000	37
52.2430000000	45
52.2730000000	55
52.3030000000	46
52.3330000000	52
52.3630000000	49
52.3930000000	41
52.4230000000	49
52.4530000000	54
52.4830000000	41
52.5130000000	41
52.5430000000	44
52.5730000000	50
52.6030000000	59
52.6330000000	48
52.6630000000	58
52.6930000000	56
52.7230000000	52
52.7530000000	37
52.7830000000	41
52.8130000000	50
52.8430000000	51
52.8730000000	50
52.9030000000	43
52.9330000000	48
52.9630000000	44
52.9930000000	37
53.0230000000	53
53.0530000000	49
53.0830000000	54
53.1130000000	41
53.1430000000	38
53.1730000000	53
53.2030000000	48
53.2330000000	58
53.2630000000	50
53.2930000000	56
53.3230000000	58
53.3530000000	62
53.3830000000	51
53.4130000000	48
53.4430000000	47
53.4730000000	52
53.5030000000	46
53.5330000000	57
53.5630000000	61
53.5930000000	75
53.6230000000	99
53.6530000000	111
53.6830000000	112
53.7130000000	115
53.7430000000	109
53.7730000000	86
53.8030000000	77
53.8330000000	73
53.8630000000	69
53.8930000000	65
53.9230000000	58
53.9530000000	50
53.9830000000	49
54.0130000000	56
54.0430000000	40
54.0730000000	35
54.1030000000	46
54.1330000000	52
54.1630000000	44
54.1930000000	42
54.2230000000	45
54.2530000000	41
54.2830000000	45
54.3130000000	42
54.3430000000	40
54.3730000000	44
54.4030000000	46
54.4330000000	40
54.4630000000	36
54.4930000000	46
54.5230000000	47
54.5530000000	43
54.5830000000	49
54.6130000000	44
54.6430000000	41
54.6730000000	41
54.7030000000	43
54.7330000000	52
54.7630000000	39
54.7930000000	49
54.8230000000	46
54.8530000000	31
54.8830000000	43
54.9130000000	39
54.9430000000	47
54.9730000000	33
55.0030000000	36
55.0330000000	52
55.0630000000	47
55.0930000000	54
55.1230000000	31
55.1530000000	48
55.1830000000	41
55.2130000000	39
55.2430000000	47
55.2730000000	43
55.3030000000	41
55.3330000000	37
55.3630000000	48
55.3930000000	37
55.4230000000	50
55.4530000000	39
55.4830000000	39
55.5130000000	43
55.5430000000	39
55.5730000000	47
55.6030000000	33
55.6330000000	45
55.6630000000	41
55.6930000000	46
55.7230000000	46
55.7530000000	42
55.7830000000	51
55.8130000000	60
55.8430000000	38
55.8730000000	58
55.9030000000	55
55.9330000000	42
55.9630000000	44
55.9930000000	40
56.0230000000	41
56.0530000000	47
56.0830000000	36
56.1130000000	41
56.1430000000	38
56.1730000000	41
56.2030000000	52
56.2330000000	54
56.2630000000	50
56.2930000000	39
56.3230000000	49
56.3530000000	49
56.3830000000	50
56.4130000000	50
56.4430000000	45
56.4730000000	44
56.5030000000	39
56.5330000000	39
56.5630000000	42
56.5930000000	38
56.6230000000	51
56.6530000000	49
56.6830000000	40
56.7130000000	47
56.7430000000	43
56.7730000000	48
56.8030000000	45
56.8330000000	49
56.8630000000	41
56.8930000000	51
56.9230000000	52
56.9530000000	42
56.9830000000	39
57.0130000000	39
57.0430000000	32
57.0730000000	44
57.1030000000	37
57.1330000000	55
57.1630000000	50
57.1930000000	35
57.2230000000	46
57.2530000000	46
57.2830000000	40
57.3130000000	48
57.3430000000	51
57.3730000000	56
57.4030000000	47
57.4330000000	27
57.4630000000	35
57.4930000000	40
57.5230000000	49
57.5530000000	36
57.5830000000	40
57.6130000000	32
57.6430000000	44
57.6730000000	45
57.7030000000	37
57.7330000000	33
57.7630000000	52
57.7930000000	51
57.8230000000	56
57.8530000000	47
57.8830000000	48
57.9130000000	41
57.9430000000	41
57.9730000000	44
58.0030000000	34
58.0330000000	31
58.0630000000	44
58.0930000000	40
58.1230000000	48
58.1530000000	84
58.1830000000	76
58.2130000000	84
58.2430000000	90
58.2730000000	72
58.3030000000	74
58.3330000000	80
58.3630000000	60
58.3930000000	52
58.4230000000	68
58.4530000000	59
58.4830000000	55
58.5130000000	44
58.5430000000	55
58.5730000000	53
58.6030000000	34
58.6330000000	51
58.6630000000	41
58.6930000000	41
58.7230000000	53
58.7530000000	36
58.7830000000	46
58.8130000000	39
58.8430000000	33
58.8730000000	48
58.9030000000	42
58.9330000000	51
58.9630000000	55
58.9930000000	51
59.0230000000	52
59.0530000000	59
59.0830000000	74
59.1130000000	73
59.1430000000	69
59.1730000000	76
59.2030000000	73
59.2330000000	64
59.2630000000	56
59.2930000000	41
59.3230000000	50
59.3530000000	53
59.3830000000	49
59.4130000000	54
59.4430000000	39
59.4730000000	46
59.5030000000	54
59.5330000000	49
59.5630000000	37
59.5930000000	47
59.6230000000	50
59.6530000000	42
59.6830000000	49
59.7130000000	41
59.7430000000	45
59.7730000000	62
59.8030000000	82
59.8330000000	94
59.8630000000	101
59.8930000000	109
59.9230000000	101
59.9530000000	121
59.9830000000	103
60.0130000000	112
60.0430000000	108
60.0730000000	88
60.1030000000	79
60.1330000000	52
60.1630000000	47
60.1930000000	43
60.2230000000	44
60.2530000000	42
60.2830000000	61
60.3130000000	49
60.3430000000	44
60.3730000000	47
60.4030000000	39
60.4330000000	38
60.4630000000	43
60.4930000000	46
60.5230000000	34
60.5530000000	56
60.5830000000	45
60.6130000000	68
60.6430000000	54
60.6730000000	36
60.7030000000	39
60.7330000000	43
60.7630000000	39
60.7930000000	48
60.8230000000	52
60.8530000000	29
60.8830000000	38
60.9130000000	28
60.9430000000	42
60.9730000000	50
61.0030000000	41
61.0330000000	37
61.0630000000	32
61.0930000000	46
61.1230000000	50
61.1530000000	38
61.1830000000	42
61.2130000000	38
61.2430000000	44
61.2730000000	41
61.3030000000	47
61.3330000000	47
61.3630000000	41
61.3930000000	28
61.4230000000	31
61.4530000000	42
61.4830000000	38
61.5130000000	42
61.5430000000	46
61.5730000000	42
61.6030000000	31
61.6330000000	44
61.6630000000	36
61.6930000000	42
61.7230000000	41
61.7530000000	40
61.7830000000	37
61.8130000000	35
61.8430000000	35
61.8730000000	43
61.9030000000	39
61.9330000000	47
61.9630000000	57
61.9930000000	49
62.0230000000	73
62.0530000000	75
62.0830000000	94
62.1130000000	92
62.1430000000	87
62.1730000000	77
62.2030000000	73
62.2330000000	68
62.2630000000	64
62.2930000000	55
62.3230000000	52
62.3530000000	57
62.3830000000	41
62.4130000000	49
62.4430000000	40
62.4730000000	39
62.5030000000	43
62.5330000000	38
62.5630000000	45
62.5930000000	31
62.6230000000	35
62.6530000000	49
62.6830000000	43
62.7130000000	37
62.7430000000	40
62.7730000000	37
62.8030000000	33
62.8330000000	32
62.8630000000	26
62.8930000000	37
62.9230000000	38
62.9530000000	44
62.9830000000	46
63.0130000000	49
63.0430000000	42
63.0730000000	34
63.1030000000	42
63.1330000000	44
63.1630000000	52
63.1930000000	49
63.2230000000	41
63.2530000000	41
63.2830000000	35
63.3130000000	36
63.3430000000	39
63.3730000000	40
63.4030000000	43
63.4330000000	43
63.4630000000	55
63.4930000000	44
63.5230000000	47
63.5530000000	56
63.5830000000	38
63.6130000000	30
63.6430000000	40
63.6730000000	47
63.7030000000	32
63.7330000000	36
63.7630000000	27
63.7930000000	32
63.8230000000	40
63.8530000000	35
63.8830000000	35
63.9130000000	43
63.9430000000	41
63.9730000000	35
64.0030000000	39
64.0330000000	45
64.0630000000	35
64.0930000000	36
64.1230000000	44
64.1530000000	43
64.1830000000	31
64.2130000000	43
64.2430000000	40
64.2730000000	38
64.3030000000	42
64.3330000000	44
64.3630000000	36
64.3930000000	33
64.4230000000	35
64.4530000000	39
64.4830000000	41
64.5130000000	37
64.5430000000	30
64.5730000000	41
64.6030000000	36
64.6330000000	36
64.6630000000	35
64.6930000000	44
64.7230000000	44
64.7530000000	39
64.7830000000	35
64.8130000000	41
64.8430000000	26
64.8730000000	31
64.9030000000	38
64.9330000000	31
64.9630000000	44
64.9930000000	39
65.0230000000	37
65.0530000000	38
65.0830000000	36
65.1130000000	34
65.1430000000	37
65.1730000000	36
65.2030000000	32
65.2330000000	40
65.2630000000	39
65.2930000000	40
65.3230000000	35
65.3530000000	31
65.3830000000	35
65.4130000000	39
65.4430000000	44
65.4730000000	37
65.5030000000	47
65.5330000000	33
65.5630000000	42
65.5930000000	40
65.6230000000	39
65.6530000000	33
65.6830000000	34
65.7130000000	37
65.7430000000	48
65.7730000000	36
65.8030000000	35
65.8330000000	40
65.8630000000	43
65.8930000000	40
65.9230000000	51
65.9530000000	50
65.9830000000	57
66.0130000000	52
66.0430000000	55
66.0730000000	59
66.1030000000	67
66.1330000000	89
66.1630000000	115
66.1930000000	129
66.2230000000	140
66.2530000000	108
66.2830000000	104
66.3130000000	107
66.3430000000	113
66.3730000000	106
66.4030000000	80
66.4330000000	89
66.4630000000	84
66.4930000000	68
66.5230000000	56
66.5530000000	52
66.5830000000	45
66.6130000000	36
66.6430000000	35
66.6730000000	43
66.7030000000	47
66.7330000000	47
66.7630000000	32
66.7930000000	31
66.8230000000	37
66.8530000000	43
66.8830000000	46
66.9130000000	38
66.9430000000	28
66.9730000000	51
67.0030000000	45
67.0330000000	44
67.0630000000	43
67.0930000000	49
67.1230000000	43
67.1530000000	34
67.1830000000	40
67.2130000000	48
67.2430000000	42
67.2730000000	44
67.3030000000	53
67.3330000000	43
67.3630000000	33
67.3930000000	42
67.4230000000	36
67.4530000000	46
67.4830000000	52
67.5130000000	38
67.5430000000	42
67.5730000000	46
67.6030000000	31
67.6330000000	47
67.6630000000	42
67.6930000000	39
67.7230000000	37
67.7530000000	38
67.7830000000	37
67.8130000000	47
67.8430000000	49
67.8730000000	42
67.9030000000	45
67.9330000000	34
67.9630000000	31
67.9930000000	35
68.0230000000	44
68.0530000000	36
68.0830000000	34
68.1130000000	36
68.1430000000	45
68.1730000000	42
68.2030000000	40
68.2330000000	39
68.2630000000	38
68.2930000000	34
68.3230000000	45
68.3530000000	40
68.3830000000	24
68.4130000000	44
68.4430000000	50
68.4730000000	45
68.5030000000	44
68.5330000000	32
68.5630000000	40
68.5930000000	43
68.6230000000	38
68.6530000000	46
68.6830000000	56
68.7130000000	48
68.7430000000	50
68.7730000000	65
68.8030000000	60
68.8330000000	65
68.8630000000	97
68.8930000000	94
68.9230000000	73
68.9530000000	70
68.9830000000	65
69.0130000000	83
69.0430000000	66
69.0730000000	73
69.1030000000	70
69.1330000000	79
69.1630000000	89
69.1930000000	89
69.2230000000	84
69.2530000000	85
69.2830000000	70
69.3130000000	71
69.3430000000	82
69.3730000000	70
69.4030000000	52
69.4330000000	56
69.4630000000	47
69.4930000000	50
69.5230000000	42
69.5530000000	40
69.5830000000	49
69.6130000000	47
69.6430000000	35
69.6730000000	33
69.7030000000	29
69.7330000000	39
69.7630000000	60
69.7930000000	43
69.8230000000	42
69.8530000000	37
69.8830000000	33
69.9130000000	43
69.9430000000	46
69.9730000000	34
70.0030000000	38
70.0330000000	51
70.0630000000	52
70.0930000000	41
70.1230000000	34
70.1530000000	42
70.1830000000	39
70.2130000000	43
70.2430000000	44
70.2730000000	47
70.3030000000	33
70.3330000000	42
70.3630000000	47
70.3930000000	54
70.4230000000	53
70.4530000000	49
70.4830000000	37
70.5130000000	37
70.5430000000	54
70.5730000000	37
70.6030000000	35
70.6330000000	39
70.6630000000	34
70.6930000000	35
70.7230000000	38
70.7530000000	33
70.7830000000	44
70.8130000000	34
70.8430000000	34
70.8730000000	42
70.9030000000	27
70.9330000000	32
70.9630000000	39
70.9930000000	31
71.0230000000	32
71.0530000000	43
71.0830000000	37
71.1130000000	38
71.1430000000	42
71.1730000000	44
71.2030000000	45
71.2330000000	40
71.2630000000	35
71.2930000000	34
71.3230000000	35
71.3530000000	31
71.3830000000	40
71.4130000000	62
71.4430000000	40
71.4730000000	40
71.5030000000	46
71.5330000000	41
71.5630000000	46
71.5930000000	39
71.6230000000	40
71.6530000000	39
71.6830000000	41
71.7130000000	46
71.7430000000	43
71.7730000000	30
71.8030000000	34
71.8330000000	39
71.8630000000	34
71.8930000000	42
71.9230000000	42
71.9530000000	41
71.9830000000	36
72.0130000000	57
72.0430000000	43
72.0730000000	52
72.1030000000	49
72.1330000000	50
72.1630000000	53
72.1930000000	64
72.2230000000	77
72.2530000000	59
72.2830000000	98
72.3130000000	93
72.3430000000	68
72.3730000000	80
72.4030000000	64
72.4330000000	60
72.4630000000	59
72.4930000000	48
72.5230000000	48
72.5530000000	35
72.5830000000	32
72.6130000000	40
72.6430000000	37
72.6730000000	41
72.7030000000	43
72.7330000000	38
72.7630000000	40
72.7930000000	45
72.8230000000	34
72.8530000000	38
72.8830000000	40
72.9130000000	38
72.9430000000	41
72.9730000000	39
73.0030000000	42
73.0330000000	28
73.0630000000	33
73.0930000000	41
73.1230000000	44
73.1530000000	44
73.1830000000	47
73.2130000000	54
73.2430000000	60
73.2730000000	55
73.3030000000	68
73.3330000000	83
73.3630000000	89
73.3930000000	94
73.4230000000	74
73.4530000000	70
73.4830000000	76
73.5130000000	91
73.5430000000	98
73.5730000000	90
73.6030000000	68
73.6330000000	50
73.6630000000	50
73.6930000000	48
73.7230000000	41
73.7530000000	43
73.7830000000	40
73.8130000000	25
73.8430000000	27
73.8730000000	37
73.9030000000	43
73.9330000000	33
73.9630000000	42
73.9930000000	41
74.0230000000	35
74.0530000000	50
74.0830000000	43
74.1130000000	35
74.1430000000	40
74.1730000000	46
74.2030000000	34
74.2330000000	37
74.2630000000	30
74.2930000000	42
74.3230000000	43
74.3530000000	39
74.3830000000	40
74.4130000000	39
74.4430000000	34
74.4730000000	35
74.5030000000	36
74.5330000000	41
74.5630000000	33
74.5930000000	34
74.6230000000	43
74.6530000000	37
74.6830000000	33
74.7130000000	42
74.7430000000	49
74.7730000000	43
74.8030000000	41
74.8330000000	42
74.8630000000	40
74.8930000000	45
74.9230000000	69
74.9530000000	83
74.9830000000	86
75.0130000000	76
75.0430000000	112
75.0730000000	115
75.1030000000	100
75.1330000000	97
75.1630000000	105
75.1930000000	94
75.2230000000	114
75.2530000000	118
75.2830000000	123
75.3130000000	116
75.3430000000	96
75.3730000000	81
75.4030000000	79
75.4330000000	77
75.4630000000	64
75.4930000000	65
75.5230000000	74
75.5530000000	82
75.5830000000	70
75.6130000000	55
75.6430000000	54
75.6730000000	58
75.7030000000	46
75.7330000000	39
75.7630000000	56
75.7930000000	48
75.8230000000	40
75.8530000000	45
75.8830000000	49
75.9130000000	43
75.9430000000	48
75.9730000000	44
76.0030000000	45
76.0330000000	32
76.0630000000	31
76.0930000000	33
76.1230000000	28
76.1530000000	43
76.1830000000	41
76.2130000000	38
76.2430000000	37
76.2730000000	38
76.3030000000	31
76.3330000000	33
76.3630000000	42
76.3930000000	45
76.4230000000	47
76.4530000000	43
76.4830000000	25
76.5130000000	38
76.5430000000	35
76.5730000000	45
76.6030000000	32
76.6330000000	50
76.6630000000	45
76.6930000000	55
76.7230000000	47
76.7530000000	64
76.7830000000	65
76.8130000000	64
76.8430000000	62
76.8730000000	47
76.9030000000	46
76.9330000000	49
76.9630000000	34
76.9930000000	52
77.0230000000	53
77.0530000000	59
77.0830000000	39
77.1130000000	47
77.1430000000	38
77.1730000000	40
77.2030000000	38
77.2330000000	42
77.2630000000	35
77.2930000000	43
77.3230000000	40
77.3530000000	33
77.3830000000	39
77.4130000000	46
77.4430000000	48
77.4730000000	63
77.5030000000	59
77.5330000000	61
77.5630000000	50
77.5930000000	49
77.6230000000	45
77.6530000000	39
77.6830000000	38
77.7130000000	55
77.7430000000	51
77.7730000000	46
77.8030000000	46
77.8330000000	43
77.8630000000	39
77.8930000000	37
77.9230000000	40
77.9530000000	39
77.9830000000	37
78.0130000000	46
78.0430000000	44
78.0730000000	39
78.1030000000	35
78.1330000000	31
78.1630000000	34
78.1930000000	41
78.2230000000	49
78.2530000000	33
78.2830000000	37
78.3130000000	46
78.3430000000	40
78.3730000000	42
78.4030000000	26
78.4330000000	32
78.4630000000	34
78.4930000000	34
78.5230000000	32
78.5530000000	38
78.5830000000	43
78.6130000000	35
78.6430000000	35
78.6730000000	40
78.7030000000	32
78.7330000000	34
78.7630000000	35
78.7930000000	42
78.8230000000	45
78.8530000000	47
78.8830000000	39
78.9130000000	41
78.9430000000	41
78.9730000000	33
79.0030000000	35
79.0330000000	35
79.0630000000	37
79.0930000000	37
79.1230000000	38
79.1530000000	30
79.1830000000	36
79.2130000000	39
79.2430000000	39
79.2730000000	33
79.3030000000	38
79.3330000000	32
79.3630000000	43
79.3930000000	41
79.4230000000	25
79.4530000000	36
79.4830000000	36
79.5130000000	44
79.5430000000	33
79.5730000000	38
79.6030000000	34
79.6330000000	45
79.6630000000	33
79.6930000000	39
79.7230000000	44
79.7530000000	25
79.7830000000	38
79.8130000000	39
79.8430000000	38
79.8730000000	39
79.9030000000	33
79.9330000000	38
79.9630000000	38
79.9930000000	38
80.0230000000	25
80.0530000000	35
80.0830000000	36
80.1130000000	39
80.1430000000	45
80.1730000000	32
80.2030000000	40
80.2330000000	40
80.2630000000	35
80.2930000000	42
80.3230000000	38
80.3530000000	41
80.3830000000	38
80.4130000000	32
80.4430000000	53
80.4730000000	45
80.5030000000	38
80.5330000000	54
80.5630000000	44
80.5930000000	46
80.6230000000	37
80.6530000000	42
80.6830000000	57
80.7130000000	46
80.7430000000	51
80.7730000000	40
80.8030000000	66
80.8330000000	52
80.8630000000	66
80.8930000000	47
80.9230000000	37
80.9530000000	47
80.9830000000	39
81.0130000000	52
81.0430000000	36
81.0730000000	35
81.1030000000	39
81.1330000000	33
81.1630000000	43
81.1930000000	43
81.2230000000	37
81.2530000000	43
81.2830000000	40
81.3130000000	33
81.3430000000	36
81.3730000000	43
81.4030000000	45
81.4330000000	31
81.4630000000	54
81.4930000000	57
81.5230000000	71
81.5530000000	79
81.5830000000	55
81.6130000000	69
81.6430000000	60
81.6730000000	62
81.7030000000	51
81.7330000000	63
81.7630000000	41
81.7930000000	52
81.8230000000	58
81.8530000000	61
81.8830000000	58
81.9130000000	64
81.9430000000	57
81.9730000000	72
82.0030000000	64
82.0330000000	46
82.0630000000	48
82.0930000000	47
82.1230000000	51
82.1530000000	42
82.1830000000	53
82.2130000000	44
82.2430000000	41
82.2730000000	53
82.3030000000	49
82.3330000000	33
82.3630000000	38
82.3930000000	34
82.4230000000	37
82.4530000000	40
82.4830000000	35
82.5130000000	32
82.5430000000	38
82.5730000000	41
82.6030000000	33
82.6330000000	36
82.6630000000	36
82.6930000000	41
82.7230000000	39
82.7530000000	42
82.7830000000	46
82.8130000000	37
82.8430000000	42
82.8730000000	47
82.9030000000	35
82.9330000000	39
82.9630000000	45
82.9930000000	44
83.0230000000	42
83.0530000000	39
83.0830000000	37
83.1130000000	35
83.1430000000	40
83.1730000000	38
83.2030000000	38
83.2330000000	30
83.2630000000	27
83.2930000000	43
83.3230000000	43
83.3530000000	47
83.3830000000	44
83.4130000000	37
83.4430000000	32
83.4730000000	38
83.5030000000	42
83.5330000000	46
83.5630000000	52
83.5930000000	59
83.6230000000	61
83.6530000000	64
83.6830000000	72
83.7130000000	59
83.7430000000	55
83.7730000000	50
83.8030000000	49
83.8330000000	44
83.8630000000	56
83.8930000000	48
83.9230000000	40
83.9530000000	36
83.9830000000	44
84.0130000000	41
84.0430000000	32
84.0730000000	40
84.1030000000	35
84.1330000000	35
84.1630000000	38
84.1930000000	32
84.2230000000	36
84.2530000000	38
84.2830000000	33
84.3130000000	37
84.3430000000	40
84.3730000000	29
84.4030000000	48
84.4330000000	50
84.4630000000	34
84.4930000000	43
84.5230000000	53
84.5530000000	29
84.5830000000	32
84.6130000000	46
84.6430000000	37
84.6730000000	36
84.7030000000	53
84.7330000000	39
84.7630000000	55
84.7930000000	60
84.8230000000	88
84.8530000000	72
84.8830000000	85
84.9130000000	77
84.9430000000	47
84.9730000000	60
85.0030000000	53
85.0330000000	64
85.0630000000	50
85.0930000000	52
85.1230000000	58
85.1530000000	58
85.1830000000	47
85.2130000000	43
85.2430000000	39
85.2730000000	32
85.3030000000	42
85.3330000000	36
85.3630000000	32
85.3930000000	44
85.4230000000	41
85.4530000000	42
85.4830000000	38
85.5130000000	27
85.5430000000	35
85.5730000000	35
85.6030000000	41
85.6330000000	36
85.6630000000	42
85.6930000000	38
85.7230000000	46
85.7530000000	45
85.7830000000	38
85.8130000000	37
85.8430000000	31
85.8730000000	39
85.9030000000	33
85.9330000000	44
85.9630000000	42
85.9930000000	30
86.0230000000	48
86.0530000000	33
86.0830000000	40
86.1130000000	25
86.1430000000	35
86.1730000000	45
86.2030000000	42
86.2330000000	36
86.2630000000	33
86.2930000000	24
86.3230000000	40
86.3530000000	44
86.3830000000	37
86.4130000000	36
86.4430000000	34
86.4730000000	38
86.5030000000	42
86.5330000000	44
86.5630000000	35
86.5930000000	39
86.6230000000	41
86.6530000000	42
86.6830000000	35
86.7130000000	34
86.7430000000	31
86.7730000000	27
86.8030000000	34
86.8330000000	42
86.8630000000	44
86.8930000000	35
86.9230000000	30
86.9530000000	42
86.9830000000	47
87.0130000000	35
87.0430000000	33
87.0730000000	37
87.1030000000	34
87.1330000000	34
87.1630000000	36
87.1930000000	36
87.2230000000	32
87.2530000000	35
87.2830000000	44
87.3130000000	39
87.3430000000	42
87.3730000000	34
87.4030000000	30
87.4330000000	29
87.4630000000	29
87.4930000000	36
87.5230000000	28
87.5530000000	35
87.5830000000	28
87.6130000000	39
87.6430000000	34
87.6730000000	41
87.7030000000	40
87.7330000000	36
87.7630000000	36
87.7930000000	40
87.8230000000	41
87.8530000000	38
87.8830000000	47
87.9130000000	32
87.9430000000	45
87.9730000000	45
88.0030000000	38
88.0330000000	35
88.0630000000	33
88.0930000000	52
88.1230000000	50
88.1530000000	40
88.1830000000	35
88.2130000000	23
88.2430000000	36
88.2730000000	38
88.3030000000	38
88.3330000000	40
88.3630000000	37
88.3930000000	43
88.4230000000	34
88.4530000000	31
88.4830000000	38
88.5130000000	30
88.5430000000	31
88.5730000000	34
88.6030000000	45
88.6330000000	40
88.6630000000	44
88.6930000000	32
88.7230000000	43
88.7530000000	40
88.7830000000	38
88.8130000000	39
88.8430000000	36
88.8730000000	38
88.9030000000	27
88.9330000000	42
88.9630000000	29
88.9930000000	38
89.0230000000	37
89.0530000000	39
89.0830000000	45
89.1130000000	48
89.1430000000	37
89.1730000000	47
89.2030000000	50
89.2330000000	33
89.2630000000	49
89.2930000000	38
89.3230000000	41
89.3530000000	44
89.3830000000	50
89.4130000000	43
89.4430000000	40
89.4730000000	44
89.5030000000	45
89.5330000000	39
89.5630000000	34
89.5930000000	41
89.6230000000	37
89.6530000000	34
89.6830000000	32
89.7130000000	39
89.7430000000	41
89.7730000000	42
89.8030000000	43
89.8330000000	35
89.8630000000	44
89.8930000000	57
89.9230000000	42
89.9530000000	38
89.9830000000	40
90.0130000000	42
90.0430000000	34
90.0730000000	42
90.1030000000	35
90.1330000000	39
90.1630000000	47
90.1930000000	43
90.2230000000	50
90.2530000000	35
90.2830000000	40
90.3130000000	52
90.3430000000	32
90.3730000000	37
90.4030000000	45
90.4330000000	38
90.4630000000	38
90.4930000000	46
90.5230000000	40
90.5530000000	36
90.5830000000	39
90.6130000000	38
90.6430000000	42
90.6730000000	33
90.7030000000	36
90.7330000000	30
90.7630000000	30
90.7930000000	31
90.8230000000	32
90.8530000000	27
90.8830000000	28
90.9130000000	51
90.9430000000	27
90.9730000000	28
91.0030000000	36
91.0330000000	28
91.0630000000	35
91.0930000000	44
91.1230000000	44
91.1530000000	42
91.1830000000	37
91.2130000000	45
91.2430000000	32
91.2730000000	40
91.3030000000	37
91.3330000000	39
91.3630000000	26
91.3930000000	35
91.4230000000	40
91.4530000000	38
91.4830000000	47
91.5130000000	40
91.5430000000	40
91.5730000000	40
91.6030000000	33
91.6330000000	28
91.6630000000	29
91.6930000000	39
91.7230000000	38
91.7530000000	38
91.7830000000	41
91.8130000000	29
91.8430000000	46
91.8730000000	40
91.9030000000	31
91.9330000000	46
91.9630000000	38
91.9930000000	49
92.0230000000	33
92.0530000000	41
92.0830000000	36
92.1130000000	31
92.1430000000	36
92.1730000000	42
92.2030000000	33
92.2330000000	27
92.2630000000	52
92.2930000000	38
92.3230000000	37
92.3530000000	35
92.3830000000	40
92.4130000000	34
92.4430000000	41
92.4730000000	38
92.5030000000	44
92.5330000000	45
92.5630000000	45
92.5930000000	37
92.6230000000	32
92.6530000000	37
92.6830000000	32
92.7130000000	50
92.7430000000	38
92.7730000000	26
92.8030000000	37
92.8330000000	32
92.8630000000	42
92.8930000000	31
92.9230000000	34
92.9530000000	35
92.9830000000	34
93.0130000000	41
93.0430000000	39
93.0730000000	38
93.1030000000	46
93.1330000000	50
93.1630000000	41
93.1930000000	44
93.2230000000	37
93.2530000000	33
93.2830000000	46
93.3130000000	36
93.3430000000	38
93.3730000000	41
93.4030000000	41
93.4330000000	33
93.4630000000	39
93.4930000000	48
93.5230000000	39
93.5530000000	39
93.5830000000	33
93.6130000000	40
93.6430000000	43
93.6730000000	32
93.7030000000	31
93.7330000000	39
93.7630000000	45
93.7930000000	35
93.8230000000	50
93.8530000000	41
93.8830000000	37
93.9130000000	39
93.9430000000	33
93.9730000000	44
94.0030000000	43
94.0330000000	43
94.0630000000	52
94.0930000000	40
94.1230000000	35
94.1530000000	43
94.1830000000	48
94.2130000000	45
94.2430000000	43
94.2730000000	33
94.3030000000	45
94.3330000000	44
94.3630000000	48
94.3930000000	49
94.4230000000	63
94.4530000000	49
94.4830000000	52
94.5130000000	63
94.5430000000	69
94.5730000000	68
94.6030000000	57
94.6330000000	56
94.6630000000	52
94.6930000000	46
94.7230000000	44
94.7530000000	38
94.7830000000	45
94.8130000000	44
94.8430000000	53
94.8730000000	37
94.9030000000	48
94.9330000000	36
94.9630000000	44
94.9930000000	40
95.0230000000	47
95.0530000000	28
95.0830000000	39
95.1130000000	34
95.1430000000	41
95.1730000000	47
95.2030000000	34
95.2330000000	29
95.2630000000	40
95.2930000000	46
95.3230000000	28
95.3530000000	44
95.3830000000	29
95.4130000000	55
95.4430000000	31
95.4730000000	30
95.5030000000	35
95.5330000000	35
95.5630000000	38
95.5930000000	45
95.6230000000	40
95.6530000000	52
95.6830000000	47
95.7130000000	39
95.7430000000	49
95.7730000000	38
95.8030000000	43
95.8330000000	25
95.8630000000	37
95.8930000000	43
95.9230000000	36
95.9530000000	41
95.9830000000	46
96.0130000000	37
96.0430000000	40
96.0730000000	51
96.1030000000	47
96.1330000000	38
96.1630000000	44
96.1930000000	40
96.2230000000	30
96.2530000000	39
96.2830000000	37
96.3130000000	27
96.3430000000	33
96.3730000000	50
96.4030000000	32
96.4330000000	39
96.4630000000	38
96.4930000000	28
96.5230000000	47
96.5530000000	28
96.5830000000	44
96.6130000000	36
96.6430000000	40
96.6730000000	26
96.7030000000	38
96.7330000000	38
96.7630000000	40
96.7930000000	33
96.8230000000	42
96.8530000000	38
96.8830000000	47
96.9130000000	42
96.9430000000	38
96.9730000000	30
97.0030000000	38
97.0330000000	44
97.0630000000	46
97.0930000000	34
97.1230000000	42
97.1530000000	49
97.1830000000	42
97.2130000000	40
97.2430000000	41
97.2730000000	42
97.3030000000	38
97.3330000000	32
97.3630000000	34
97.3930000000	32
97.4230000000	29
97.4530000000	31
97.4830000000	34
97.5130000000	45
97.5430000000	47
97.5730000000	31
97.6030000000	27
97.6330000000	36
97.6630000000	31
97.6930000000	35
97.7230000000	36
97.7530000000	25
97.7830000000	43
97.8130000000	36
97.8430000000	37
97.8730000000	34
97.9030000000	40
97.9330000000	41
97.9630000000	42
97.9930000000	40
98.0230000000	40
98.0530000000	43
98.0830000000	29
98.1130000000	30
98.1430000000	37
98.1730000000	36
98.2030000000	38
98.2330000000	42
98.2630000000	24
98.2930000000	27
98.3230000000	45
98.3530000000	27
98.3830000000	34
98.4130000000	40
98.4430000000	43
98.4730000000	31
98.5030000000	37
98.5330000000	38
98.5630000000	34
98.5930000000	30
98.6230000000	31
98.6530000000	30
98.6830000000	42
98.7130000000	55
98.7430000000	48
98.7730000000	47
98.8030000000	50
98.8330000000	49
98.8630000000	50
98.8930000000	32
98.9230000000	41
98.9530000000	44
98.9830000000	48
99.0130000000	46
99.0430000000	43
99.0730000000	42
99.1030000000	40
99.1330000000	43
99.1630000000	47
99.1930000000	42
99.2230000000	40
99.2530000000	46
99.2830000000	39
99.3130000000	39
99.3430000000	30
99.3730000000	43
99.4030000000	40
99.4330000000	46
99.4630000000	27
99.4930000000	50
99.5230000000	37
99.5530000000	40
99.5830000000	29
99.6130000000	32
99.6430000000	37
99.6730000000	26
99.7030000000	37
99.7330000000	27
99.7630000000	40
99.7930000000	28
99.8230000000	30
99.8530000000	34
99.8830000000	35
99.9130000000	37
99.9430000000	39
99.9730000000	29
100.0030000000	27
100.0330000000	28
100.0630000000	34
100.0930000000	36
100.1230000000	34
100.1530000000	27
100.1830000000	31
100.2130000000	35
100.2430000000	25
100.2730000000	38
100.3030000000	39
100.3330000000	40
100.3630000000	29
100.3930000000	44
100.4230000000	49
100.4530000000	36
100.4830000000	50
100.5130000000	43
100.5430000000	28
100.5730000000	26
100.6030000000	36
100.6330000000	27
100.6630000000	39
100.6930000000	31
100.7230000000	31
100.7530000000	33
100.7830000000	35
100.8130000000	40
100.8430000000	34
100.8730000000	39
100.9030000000	34
100.9330000000	35
100.9630000000	33
100.9930000000	36
101.0230000000	46
101.0530000000	36
101.0830000000	29
101.1130000000	34
101.1430000000	33
101.1730000000	31
101.2030000000	43
101.2330000000	32
101.2630000000	36
101.2930000000	34
101.3230000000	31
101.3530000000	40
101.3830000000	30
101.4130000000	32
101.4430000000	38
101.4730000000	28
101.5030000000	33
101.5330000000	30
101.5630000000	30
101.5930000000	39
101.6230000000	34
101.6530000000	36
101.6830000000	43
101.7130000000	32
101.7430000000	34
101.7730000000	37
101.8030000000	38
101.8330000000	27
101.8630000000	31
101.8930000000	37
101.9230000000	31
101.9530000000	27
101.9830000000	30
102.0130000000	30
102.0430000000	31
102.0730000000	39
102.1030000000	39
102.1330000000	25
102.1630000000	24
102.1930000000	36
102.2230000000	30
102.2530000000	37
102.2830000000	37
102.3130000000	42
102.3430000000	33
102.3730000000	33
102.4030000000	43
102.4330000000	37
102.4630000000	35
102.4930000000	36
102.5230000000	35
102.5530000000	32
102.5830000000	48
102.6130000000	33
102.6430000000	22
102.6730000000	37
102.7030000000	48
102.7330000000	46
102.7630000000	41
102.7930000000	40
102.8230000000	24
102.8530000000	34
102.8830000000	50
102.9130000000	30
102.9430000000	31
102.9730000000	32
103.0030000000	31
103.0330000000	33
103.0630000000	39
103.0930000000	43
103.1230000000	42
103.1530000000	37
103.1830000000	40
103.2130000000	38
103.2430000000	32
103.2730000000	31
103.3030000000	30
103.3330000000	31
103.3630000000	29
103.3930000000	25
103.4230000000	41
103.4530000000	31
103.4830000000	37
103.5130000000	45
103.5430000000	39
103.5730000000	28
103.6030000000	33
103.6330000000	26
103.6630000000	20
103.6930000000	39
103.7230000000	35
103.7530000000	31
103.7830000000	36
103.8130000000	49
103.8430000000	34
103.8730000000	39
103.9030000000	38
103.9330000000	42
103.9630000000	34
103.9930000000	44
104.0230000000	45
104.0530000000	40
104.0830000000	48
104.1130000000	42
104.1430000000	31
104.1730000000	45
104.2030000000	55
104.2330000000	36
104.2630000000	56
104.2930000000	41
104.3230000000	36
104.3530000000	45
104.3830000000	45
104.4130000000	50
104.4430000000	48
104.4730000000	35
104.5030000000	47
104.5330000000	44
104.5630000000	41
104.5930000000	31
104.6230000000	43
104.6530000000	33
104.6830000000	23
104.7130000000	47
104.7430000000	38
104.7730000000	38
104.8030000000	39
104.8330000000	44
104.8630000000	42
104.8930000000	43
104.9230000000	49
104.9530000000	32
104.9830000000	37
105.0130000000	42
105.0430000000	39
105.0730000000	47
105.1030000000	47
105.1330000000	40
105.1630000000	35
105.1930000000	38
105.2230000000	44
105.2530000000	36
105.2830000000	36
105.3130000000	42
105.3430000000	49
105.3730000000	33
105.4030000000	50
105.4330000000	44
105.4630000000	41
105.4930000000	43
105.5230000000	42
105.5530000000	38
105.5830000000	32
105.6130000000	34
105.6430000000	28
105.6730000000	43
105.7030000000	32
105.7330000000	36
105.7630000000	43
105.7930000000	45
105.8230000000	26
105.8530000000	36
105.8830000000	41
105.9130000000	29
105.9430000000	29
105.9730000000	30
106.0030000000	39
106.0330000000	43
106.0630000000	31
106.0930000000	39
106.1230000000	40
106.1530000000	28
106.1830000000	25
106.2130000000	39
106.2430000000	28
106.2730000000	32
106.3030000000	28
106.3330000000	30
106.3630000000	40
106.3930000000	32
106.4230000000	31
106.4530000000	45
106.4830000000	35
106.5130000000	32
106.5430000000	32
106.5730000000	28
106.6030000000	31
106.6330000000	35
106.6630000000	39
106.6930000000	32
106.7230000000	30
106.7530000000	43
106.7830000000	41
106.8130000000	45
106.8430000000	33
106.8730000000	26
106.9030000000	34
106.9330000000	45
106.9630000000	37
106.9930000000	43
107.0230000000	27
107.0530000000	28
107.0830000000	39
107.1130000000	40
107.1430000000	34
107.1730000000	28
107.2030000000	43
107.2330000000	37
107.2630000000	47
107.2930000000	35
107.3230000000	33
107.3530000000	43
107.3830000000	43
107.4130000000	44
107.4430000000	43
107.4730000000	30
107.5030000000	28
107.5330000000	37
107.5630000000	37
107.5930000000	33
107.6230000000	36
107.6530000000	41
107.6830000000	40
107.7130000000	36
107.7430000000	36
107.7730000000	29
107.8030000000	35
107.8330000000	37
107.8630000000	33
107.8930000000	35
107.9230000000	29
107.9530000000	29
107.9830000000	42
108.0130000000	46
108.0430000000	40
108.0730000000	41
108.1030000000	47
108.1330000000	37
108.1630000000	32
108.1930000000	32
108.2230000000	41
108.2530000000	41
108.2830000000	35
108.3130000000	42
108.3430000000	50
108.3730000000	44
108.4030000000	50
108.4330000000	40
108.4630000000	38
108.4930000000	29
108.5230000000	42
108.5530000000	43
108.5830000000	43
108.6130000000	41
108.6430000000	43
108.6730000000	45
108.7030000000	56
108.7330000000	37
108.7630000000	54
108.7930000000	61
108.8230000000	59
108.8530000000	53
108.8830000000	49
108.9130000000	64
108.9430000000	79
108.9730000000	83
109.0030000000	61
109.0330000000	69
109.0630000000	79
109.0930000000	87
109.1230000000	64
109.1530000000	49
109.1830000000	55
109.2130000000	54
109.2430000000	50
109.2730000000	58
109.3030000000	58
109.3330000000	49
109.3630000000	44
109.3930000000	39
109.4230000000	30
109.4530000000	36
109.4830000000	40
109.5130000000	38
109.5430000000	32
109.5730000000	36
109.6030000000	37
109.6330000000	35
109.6630000000	46
109.6930000000	32
109.7230000000	44
109.7530000000	49
109.7830000000	36
109.8130000000	34
109.8430000000	48
109.8730000000	40
109.9030000000	36
109.9330000000	37
109.9630000000	39
109.9930000000	32
110.0230000000	36
110.0530000000	41
110.0830000000	30
110.1130000000	42
110.1430000000	28
110.1730000000	25
110.2030000000	35
110.2330000000	35
110.2630000000	39
110.2930000000	34
110.3230000000	35
110.3530000000	29
110.3830000000	39
110.4130000000	45
110.4430000000	40
110.4730000000	48
110.5030000000	27
110.5330000000	32
110.5630000000	35
110.5930000000	36
110.6230000000	34
110.6530000000	35
110.6830000000	28
110.7130000000	33
110.7430000000	42
110.7730000000	30
110.8030000000	35
110.8330000000	38
110.8630000000	34
110.8930000000	31
110.9230000000	33
110.9530000000	37
110.9830000000	38
111.0130000000	38
111.0430000000	42
111.0730000000	37
111.1030000000	38
111.1330000000	50
111.1630000000	46
111.1930000000	43
111.2230000000	49
111.2530000000	38
111.2830000000	27
111.3130000000	48
111.3430000000	42
111.3730000000	32
111.4030000000	28
111.4330000000	37
111.4630000000	40
111.4930000000	33
111.5230000000	35
111.5530000000	39
111.5830000000	47
111.6130000000	33
111.6430000000	42
111.6730000000	44
111.7030000000	42
111.7330000000	42
111.7630000000	34
111.7930000000	43
111.8230000000	36
111.8530000000	38
111.8830000000	38
111.9130000000	45
111.9430000000	41
111.9730000000	47
112.0030000000	41
112.0330000000	37
112.0630000000	45
112.0930000000	30
112.1230000000	27
112.1530000000	33
112.1830000000	38
112.2130000000	38
112.2430000000	26
112.2730000000	25
112.3030000000	36
112.3330000000	40
112.3630000000	36
112.3930000000	35
112.4230000000	48
112.4530000000	37
112.4830000000	34
112.5130000000	40
112.5430000000	44
112.5730000000	34
112.6030000000	47
112.6330000000	52
112.6630000000	43
112.6930000000	34
112.7230000000	41
112.7530000000	40
112.7830000000	31
112.8130000000	37
112.8430000000	42
112.8730000000	31
112.9030000000	36
112.9330000000	32
112.9630000000	35
112.9930000000	36
113.0230000000	31
113.0530000000	38
113.0830000000	37
113.1130000000	31
113.1430000000	39
113.1730000000	43
113.2030000000	39
113.2330000000	51
113.2630000000	39
113.2930000000	43
113.3230000000	41
113.3530000000	35
113.3830000000	29
113.4130000000	33
113.4430000000	38
113.4730000000	29
113.5030000000	35
113.5330000000	41
113.5630000000	32
113.5930000000	32
113.6230000000	35
113.6530000000	37
113.6830000000	40
113.7130000000	39
113.7430000000	47
113.7730000000	45
113.8030000000	27
113.8330000000	30
113.8630000000	38
113.8930000000	37
113.9230000000	32
113.9530000000	35
113.9830000000	38
114.0130000000	31
114.0430000000	29
114.0730000000	28
114.1030000000	32
114.1330000000	32
114.1630000000	34
114.1930000000	37
114.2230000000	38
114.2530000000	39
114.2830000000	41
114.3130000000	41
114.3430000000	35
114.3730000000	36
114.4030000000	37
114.4330000000	44
114.4630000000	1
114.4930000000	1
114.5230000000	1
114.5530000000	1
114.5830000000	1
