0.3130000000	1
0.3430000000	1
0.3730000000	1
0.4030000000	1
0.4330000000	1
0.4630000000	1
0.4930000000	1
0.5230000000	1
0.5530000000	1
0.5830000000	1
0.6130000000	1
0.6430000000	1
0.6730000000	1
0.7030000000	1
0.7330000000	1
0.7630000000	1
0.7930000000	2
0.8230000000	2
0.8530000000	1
0.8830000000	1
0.9130000000	1
0.9430000000	1
0.9730000000	1
1.0030000000	1
1.0330000000	1
1.0630000000	1
1.0930000000	1
1.1230000000	1
1.1530000000	2
1.1830000000	1
1.2130000000	1
1.2430000000	1
1.2730000000	3
1.3030000000	1
1.3330000000	1
1.3630000000	1
1.3930000000	1
1.4230000000	1
1.4530000000	2
1.4830000000	1
1.5130000000	1
1.5430000000	1
1.5730000000	1
1.6030000000	1
1.6330000000	1
1.6630000000	1
1.6930000000	1
1.7230000000	1
1.7530000000	3
1.7830000000	2
1.8130000000	1
1.8430000000	1
1.8730000000	1
1.9030000000	3
1.9330000000	2
1.9630000000	1
1.9930000000	1
2.0230000000	1
2.0530000000	1
2.0830000000	1
2.1130000000	1
2.1430000000	2
2.1730000000	1
2.2030000000	2
2.2330000000	2
2.2630000000	1
2.2930000000	1
2.3230000000	1
2.3530000000	1
2.3830000000	2
2.4130000000	2
2.4430000000	1
2.4730000000	1
2.5030000000	2
2.5330000000	2
2.5630000000	1
2.5930000000	2
2.6230000000	1
2.6530000000	1
2.6830000000	2
2.7130000000	1
2.7430000000	1
2.7730000000	2
2.8030000000	2
2.8330000000	2
2.8630000000	2
2.8930000000	2
2.9230000000	1
2.9530000000	2
2.9830000000	2
3.0130000000	1
3.0430000000	2
3.0730000000	3
3.1030000000	1
3.1330000000	1
3.1630000000	4
3.1930000000	5
3.2230000000	1
3.2530000000	1
3.2830000000	2
3.3130000000	2
3.3430000000	1
3.3730000000	1
3.4030000000	1
3.4330000000	2
3.4630000000	2
3.4930000000	3
3.5230000000	2
3.5530000000	3
3.5830000000	2
3.6130000000	3
3.6430000000	2
3.6730000000	5
3.7030000000	0
3.7330000000	1
3.7630000000	2
3.7930000000	2
3.8230000000	2
3.8530000000	3
3.8830000000	2
3.9130000000	1
3.9430000000	3
3.9730000000	1
4.0030000000	3
4.0330000000	1
4.0630000000	2
4.0930000000	4
4.1230000000	2
4.1530000000	1
4.1830000000	3
4.2130000000	2
4.2430000000	3
4.2730000000	2
4.3030000000	2
4.3330000000	6
4.3630000000	5
4.3930000000	7
4.4230000000	4
4.4530000000	7
4.4830000000	16
4.5130000000	15
4.5430000000	44
4.5730000000	58
4.6030000000	103
4.6330000000	94
4.6630000000	109
4.6930000000	120
4.7230000000	139
4.7530000000	138
4.7830000000	145
4.8130000000	144
4.8430000000	152
4.8730000000	139
4.9030000000	114
4.9330000000	133
4.9630000000	134
4.9930000000	143
5.0230000000	151
5.0530000000	135
5.0830000000	130
5.1130000000	165
5.1430000000	183
5.1730000000	146
5.2030000000	121
5.2330000000	146
5.2630000000	144
5.2930000000	143
5.3230000000	138
5.3530000000	125
5.3830000000	147
5.4130000000	161
5.4430000000	140
5.4730000000	153
5.5030000000	170
5.5330000000	144
5.5630000000	152
5.5930000000	135
5.6230000000	135
5.6530000000	161
5.6830000000	165
5.7130000000	149
5.7430000000	140
5.7730000000	156
5.8030000000	155
5.8330000000	143
5.8630000000	127
5.8930000000	154
5.9230000000	156
5.9530000000	157
5.9830000000	148
6.0130000000	136
6.0430000000	145
6.0730000000	129
6.1030000000	131
6.1330000000	172
6.1630000000	142
6.1930000000	174
6.2230000000	147
6.2530000000	132
6.2830000000	153
6.3130000000	148
6.3430000000	152
6.3730000000	143
6.4030000000	117
6.4330000000	145
6.4630000000	134
6.4930000000	119
6.5230000000	149
6.5530000000	164
6.5830000000	160
6.6130000000	155
6.6430000000	148
6.6730000000	153
6.7030000000	149
6.7330000000	148
6.7630000000	143
6.7930000000	128
6.8230000000	157
6.8530000000	166
6.8830000000	164
6.9130000000	136
6.9430000000	122
6.9730000000	162
7.0030000000	148
7.0330000000	139
7.0630000000	146
7.0930000000	156
7.1230000000	135
7.1530000000	144
7.1830000000	151
7.2130000000	144
7.2430000000	150
7.2730000000	129
7.3030000000	142
7.3330000000	135
7.3630000000	155
7.3930000000	159
7.4230000000	166
7.4530000000	157
7.4830000000	129
7.5130000000	134
7.5430000000	153
7.5730000000	139
7.6030000000	138
7.6330000000	141
7.6630000000	140
7.6930000000	154
7.7230000000	149
7.7530000000	146
7.7830000000	148
7.8130000000	146
7.8430000000	151
7.8730000000	148
7.9030000000	154
7.9330000000	157
7.9630000000	144
7.9930000000	148
8.0230000000	156
8.0530000000	141
8.0830000000	134
8.1130000000	143
8.1430000000	150
8.1730000000	140
8.2030000000	137
8.2330000000	131
8.2630000000	142
8.2930000000	133
8.3230000000	141
8.3530000000	145
8.3830000000	161
8.4130000000	145
8.4430000000	161
8.4730000000	159
8.5030000000	144
8.5330000000	163
8.5630000000	167
8.5930000000	134
8.6230000000	155
8.6530000000	134
8.6830000000	130
8.7130000000	163
8.7430000000	159
8.7730000000	130
8.8030000000	114
8.8330000000	151
8.8630000000	144
8.8930000000	116
8.9230000000	146
8.9530000000	138
8.9830000000	146
9.0130000000	146
9.0430000000	124
9.0730000000	147
9.1030000000	147
9.1330000000	147
9.1630000000	157
9.1930000000	140
9.2230000000	132
9.2530000000	140
9.2830000000	147
9.3130000000	136
9.3430000000	154
9.3730000000	147
9.4030000000	162
9.4330000000	158
9.4630000000	132
9.4930000000	125
9.5230000000	136
9.5530000000	144
9.5830000000	138
9.6130000000	135
9.6430000000	141
9.6730000000	137
9.7030000000	153
9.7330000000	141
9.7630000000	148
9.7930000000	152
9.8230000000	135
9.8530000000	138
9.8830000000	131
9.9130000000	148
9.9430000000	150
9.9730000000	160
10.0030000000	155
10.0330000000	133
10.0630000000	150
10.0930000000	145
10.1230000000	158
10.1530000000	152
10.1830000000	143
10.2130000000	141
10.2430000000	146
10.2730000000	135
10.3030000000	158
10.3330000000	146
10.3630000000	150
10.3930000000	164
10.4230000000	144
10.4530000000	156
10.4830000000	149
10.5130000000	140
10.5430000000	137
10.5730000000	159
10.6030000000	151
10.6330000000	160
10.6630000000	150
10.6930000000	169
10.7230000000	166
10.7530000000	142
10.7830000000	146
10.8130000000	138
10.8430000000	144
10.8730000000	160
10.9030000000	158
10.9330000000	128
10.9630000000	158
10.9930000000	176
11.0230000000	171
11.0530000000	136
11.0830000000	135
11.1130000000	137
11.1430000000	136
11.1730000000	146
11.2030000000	148
11.2330000000	155
11.2630000000	145
11.2930000000	131
11.3230000000	140
11.3530000000	156
11.3830000000	149
11.4130000000	130
11.4430000000	131
11.4730000000	137
11.5030000000	142
11.5330000000	155
11.5630000000	162
11.5930000000	170
11.6230000000	148
11.6530000000	131
11.6830000000	148
11.7130000000	139
11.7430000000	133
11.7730000000	137
11.8030000000	152
11.8330000000	156
11.8630000000	139
11.8930000000	140
11.9230000000	162
11.9530000000	143
11.9830000000	156
12.0130000000	122
12.0430000000	133
12.0730000000	139
12.1030000000	159
12.1330000000	141
12.1630000000	161
12.1930000000	156
12.2230000000	131
12.2530000000	131
12.2830000000	143
12.3130000000	133
12.3430000000	161
12.3730000000	160
12.4030000000	151
12.4330000000	150
12.4630000000	139
12.4930000000	141
12.5230000000	165
12.5530000000	148
12.5830000000	127
12.6130000000	146
12.6430000000	155
12.6730000000	151
12.7030000000	158
12.7330000000	143
12.7630000000	133
12.7930000000	155
12.8230000000	158
12.8530000000	146
12.8830000000	155
12.9130000000	138
12.9430000000	131
12.9730000000	146
13.0030000000	136
13.0330000000	149
13.0630000000	162
13.0930000000	145
13.1230000000	159
13.1530000000	172
13.1830000000	125
13.2130000000	155
13.2430000000	136
13.2730000000	146
13.3030000000	165
13.3330000000	122
13.3630000000	155
13.3930000000	145
13.4230000000	138
13.4530000000	135
13.4830000000	157
13.5130000000	139
13.5430000000	113
13.5730000000	157
13.6030000000	152
13.6330000000	157
13.6630000000	138
13.6930000000	137
13.7230000000	127
13.7530000000	129
13.7830000000	135
13.8130000000	149
13.8430000000	130
13.8730000000	158
13.9030000000	151
13.9330000000	143
13.9630000000	138
13.9930000000	132
14.0230000000	140
14.0530000000	155
14.0830000000	169
14.1130000000	149
14.1430000000	147
14.1730000000	155
14.2030000000	143
14.2330000000	142
14.2630000000	138
14.2930000000	125
14.3230000000	137
14.3530000000	169
14.3830000000	140
14.4130000000	149
14.4430000000	151
14.4730000000	131
14.5030000000	138
14.5330000000	143
14.5630000000	147
14.5930000000	154
14.6230000000	159
14.6530000000	151
14.6830000000	131
14.7130000000	141
14.7430000000	150
14.7730000000	156
14.8030000000	135
14.8330000000	144
14.8630000000	160
14.8930000000	123
14.9230000000	150
14.9530000000	162
14.9830000000	167
15.0130000000	138
15.0430000000	163
15.0730000000	163
15.1030000000	152
15.1330000000	136
15.1630000000	167
15.1930000000	142
15.2230000000	162
15.2530000000	164
15.2830000000	178
15.3130000000	151
15.3430000000	132
15.3730000000	148
15.4030000000	166
15.4330000000	143
15.4630000000	160
15.4930000000	146
15.5230000000	136
15.5530000000	144
15.5830000000	146
15.6130000000	153
15.6430000000	161
15.6730000000	129
15.7030000000	164
15.7330000000	164
15.7630000000	170
15.7930000000	135
15.8230000000	132
15.8530000000	158
15.8830000000	151
15.9130000000	137
15.9430000000	157
15.9730000000	163
16.0030000000	131
16.0330000000	139
16.0630000000	157
16.0930000000	138
16.1230000000	159
16.1530000000	134
16.1830000000	132
16.2130000000	133
16.2430000000	130
16.2730000000	119
16.3030000000	154
16.3330000000	122
16.3630000000	137
16.3930000000	143
16.4230000000	151
16.4530000000	125
16.4830000000	145
16.5130000000	134
16.5430000000	137
16.5730000000	141
16.6030000000	131
16.6330000000	150
16.6630000000	140
16.6930000000	123
16.7230000000	144
16.7530000000	161
16.7830000000	162
16.8130000000	168
16.8430000000	138
16.8730000000	131
16.9030000000	153
16.9330000000	150
16.9630000000	152
16.9930000000	139
17.0230000000	121
17.0530000000	160
17.0830000000	143
17.1130000000	137
17.1430000000	161
17.1730000000	155
17.2030000000	148
17.2330000000	156
17.2630000000	133
17.2930000000	137
17.3230000000	157
17.3530000000	174
17.3830000000	156
17.4130000000	140
17.4430000000	133
17.4730000000	148
17.5030000000	147
17.5330000000	143
17.5630000000	144
17.5930000000	140
17.6230000000	154
17.6530000000	150
17.6830000000	137
17.7130000000	141
17.7430000000	135
17.7730000000	136
17.8030000000	147
17.8330000000	155
17.8630000000	158
17.8930000000	139
17.9230000000	136
17.9530000000	156
17.9830000000	152
18.0130000000	148
18.0430000000	150
18.0730000000	136
18.1030000000	145
18.1330000000	124
18.1630000000	128
18.1930000000	145
18.2230000000	141
18.2530000000	146
18.2830000000	138
18.3130000000	137
18.3430000000	134
18.3730000000	162
18.4030000000	156
18.4330000000	121
18.4630000000	146
18.4930000000	145
18.5230000000	133
18.5530000000	127
18.5830000000	138
18.6130000000	121
18.6430000000	161
18.6730000000	141
18.7030000000	152
18.7330000000	156
18.7630000000	164
18.7930000000	147
18.8230000000	137
18.8530000000	131
18.8830000000	122
18.9130000000	142
18.9430000000	157
18.9730000000	134
19.0030000000	134
19.0330000000	147
19.0630000000	159
19.0930000000	161
19.1230000000	134
19.1530000000	148
19.1830000000	144
19.2130000000	139
19.2430000000	160
19.2730000000	143
19.3030000000	134
19.3330000000	151
19.3630000000	166
19.3930000000	168
19.4230000000	147
19.4530000000	166
19.4830000000	147
19.5130000000	131
19.5430000000	143
19.5730000000	132
19.6030000000	132
19.6330000000	151
19.6630000000	146
19.6930000000	171
19.7230000000	135
19.7530000000	145
19.7830000000	157
19.8130000000	157
19.8430000000	179
19.8730000000	133
19.9030000000	151
19.9330000000	148
19.9630000000	146
19.9930000000	149
20.0230000000	161
20.0530000000	156
20.0830000000	147
20.1130000000	175
20.1430000000	126
20.1730000000	162
20.2030000000	143
20.2330000000	168
20.2630000000	141
20.2930000000	144
20.3230000000	174
20.3530000000	154
20.3830000000	168
20.4130000000	172
20.4430000000	162
20.4730000000	152
20.5030000000	147
20.5330000000	136
20.5630000000	187
20.5930000000	164
20.6230000000	172
20.6530000000	185
20.6830000000	222
20.7130000000	301
20.7430000000	370
20.7730000000	530
20.8030000000	640
20.8330000000	847
20.8630000000	930
20.8930000000	851
20.9230000000	764
20.9530000000	520
20.9830000000	372
21.0130000000	291
21.0430000000	247
21.0730000000	193
21.1030000000	163
21.1330000000	145
21.1630000000	169
21.1930000000	180
21.2230000000	159
21.2530000000	134
21.2830000000	160
21.3130000000	168
21.3430000000	168
21.3730000000	163
21.4030000000	167
21.4330000000	159
21.4630000000	150
21.4930000000	168
21.5230000000	149
21.5530000000	142
21.5830000000	149
21.6130000000	151
21.6430000000	146
21.6730000000	147
21.7030000000	150
21.7330000000	161
21.7630000000	158
21.7930000000	161
21.8230000000	154
21.8530000000	174
21.8830000000	169
21.9130000000	162
21.9430000000	166
21.9730000000	160
22.0030000000	167
22.0330000000	166
22.0630000000	149
22.0930000000	149
22.1230000000	175
22.1530000000	168
22.1830000000	154
22.2130000000	140
22.2430000000	151
22.2730000000	159
22.3030000000	176
22.3330000000	171
22.3630000000	145
22.3930000000	135
22.4230000000	149
22.4530000000	157
22.4830000000	152
22.5130000000	158
22.5430000000	169
22.5730000000	166
22.6030000000	153
22.6330000000	158
22.6630000000	172
22.6930000000	161
22.7230000000	143
22.7530000000	168
22.7830000000	156
22.8130000000	162
22.8430000000	164
22.8730000000	169
22.9030000000	169
22.9330000000	165
22.9630000000	172
22.9930000000	149
23.0230000000	165
23.0530000000	195
23.0830000000	165
23.1130000000	164
23.1430000000	153
23.1730000000	147
23.2030000000	153
23.2330000000	170
23.2630000000	166
23.2930000000	187
23.3230000000	176
23.3530000000	139
23.3830000000	155
23.4130000000	164
23.4430000000	159
23.4730000000	147
23.5030000000	161
23.5330000000	142
23.5630000000	166
23.5930000000	147
23.6230000000	162
23.6530000000	146
23.6830000000	156
23.7130000000	197
23.7430000000	154
23.7730000000	164
23.8030000000	186
23.8330000000	155
23.8630000000	172
23.8930000000	173
23.9230000000	164
23.9530000000	178
23.9830000000	158
24.0130000000	141
24.0430000000	161
24.0730000000	176
24.1030000000	164
24.1330000000	156
24.1630000000	159
24.1930000000	171
24.2230000000	177
24.2530000000	184
24.2830000000	177
24.3130000000	174
24.3430000000	180
24.3730000000	174
24.4030000000	150
24.4330000000	175
24.4630000000	163
24.4930000000	143
24.5230000000	178
24.5530000000	160
24.5830000000	173
24.6130000000	168
24.6430000000	172
24.6730000000	146
24.7030000000	151
24.7330000000	140
24.7630000000	157
24.7930000000	178
24.8230000000	164
24.8530000000	159
24.8830000000	176
24.9130000000	173
24.9430000000	162
24.9730000000	152
25.0030000000	184
25.0330000000	157
25.0630000000	171
25.0930000000	154
25.1230000000	178
25.1530000000	176
25.1830000000	160
25.2130000000	177
25.2430000000	179
25.2730000000	178
25.3030000000	175
25.3330000000	165
25.3630000000	158
25.3930000000	172
25.4230000000	160
25.4530000000	184
25.4830000000	157
25.5130000000	177
25.5430000000	160
25.5730000000	152
25.6030000000	159
25.6330000000	179
25.6630000000	169
25.6930000000	173
25.7230000000	198
25.7530000000	176
25.7830000000	201
25.8130000000	177
25.8430000000	242
25.8730000000	346
25.9030000000	406
25.9330000000	538
25.9630000000	797
25.9930000000	1035
26.0230000000	1339
26.0530000000	1444
26.0830000000	1290
26.1130000000	969
26.1430000000	690
26.1730000000	506
26.2030000000	374
26.2330000000	284
26.2630000000	240
26.2930000000	204
26.3230000000	181
26.3530000000	161
26.3830000000	159
26.4130000000	154
26.4430000000	158
26.4730000000	147
26.5030000000	153
26.5330000000	150
26.5630000000	162
26.5930000000	164
26.6230000000	148
26.6530000000	135
26.6830000000	142
26.7130000000	142
26.7430000000	170
26.7730000000	160
26.8030000000	139
26.8330000000	156
26.8630000000	157
26.8930000000	152
26.9230000000	150
26.9530000000	143
26.9830000000	138
27.0130000000	144
27.0430000000	139
27.0730000000	137
27.1030000000	157
27.1330000000	149
27.1630000000	143
27.1930000000	142
27.2230000000	116
27.2530000000	141
27.2830000000	132
27.3130000000	171
27.3430000000	150
27.3730000000	135
27.4030000000	141
27.4330000000	135
27.4630000000	133
27.4930000000	146
27.5230000000	144
27.5530000000	126
27.5830000000	162
27.6130000000	146
27.6430000000	126
27.6730000000	153
27.7030000000	142
27.7330000000	139
27.7630000000	133
27.7930000000	143
27.8230000000	127
27.8530000000	118
27.8830000000	143
27.9130000000	148
27.9430000000	153
27.9730000000	149
28.0030000000	121
28.0330000000	145
28.0630000000	167
28.0930000000	189
28.1230000000	174
28.1530000000	206
28.1830000000	219
28.2130000000	260
28.2430000000	216
28.2730000000	247
28.3030000000	230
28.3330000000	195
28.3630000000	169
28.3930000000	156
28.4230000000	148
28.4530000000	161
28.4830000000	151
28.5130000000	150
28.5430000000	177
28.5730000000	144
28.6030000000	143
28.6330000000	123
28.6630000000	131
28.6930000000	134
28.7230000000	127
28.7530000000	130
28.7830000000	141
28.8130000000	135
28.8430000000	137
28.8730000000	117
28.9030000000	141
28.9330000000	163
28.9630000000	131
28.9930000000	119
29.0230000000	117
29.0530000000	121
29.0830000000	112
29.1130000000	130
29.1430000000	151
29.1730000000	118
29.2030000000	131
29.2330000000	136
29.2630000000	130
29.2930000000	113
29.3230000000	119
29.3530000000	138
29.3830000000	114
29.4130000000	123
29.4430000000	114
29.4730000000	103
29.5030000000	137
29.5330000000	134
29.5630000000	136
29.5930000000	122
29.6230000000	133
29.6530000000	112
29.6830000000	121
29.7130000000	131
29.7430000000	122
29.7730000000	128
29.8030000000	118
29.8330000000	123
29.8630000000	118
29.8930000000	99
29.9230000000	123
29.9530000000	111
29.9830000000	116
30.0130000000	105
30.0430000000	121
30.0730000000	116
30.1030000000	102
30.1330000000	103
30.1630000000	142
30.1930000000	95
30.2230000000	123
30.2530000000	124
30.2830000000	127
30.3130000000	118
30.3430000000	114
30.3730000000	113
30.4030000000	130
30.4330000000	128
30.4630000000	112
30.4930000000	106
30.5230000000	131
30.5530000000	111
30.5830000000	113
30.6130000000	138
30.6430000000	109
30.6730000000	114
30.7030000000	119
30.7330000000	116
30.7630000000	98
30.7930000000	106
30.8230000000	107
30.8530000000	126
30.8830000000	104
30.9130000000	124
30.9430000000	103
30.9730000000	111
31.0030000000	100
31.0330000000	111
31.0630000000	103
31.0930000000	118
31.1230000000	128
31.1530000000	109
31.1830000000	111
31.2130000000	109
31.2430000000	120
31.2730000000	111
31.3030000000	103
31.3330000000	111
31.3630000000	130
31.3930000000	116
31.4230000000	116
31.4530000000	115
31.4830000000	110
31.5130000000	106
31.5430000000	107
31.5730000000	123
31.6030000000	109
31.6330000000	124
31.6630000000	109
31.6930000000	106
31.7230000000	107
31.7530000000	95
31.7830000000	112
31.8130000000	106
31.8430000000	118
31.8730000000	109
31.9030000000	115
31.9330000000	105
31.9630000000	104
31.9930000000	104
32.0230000000	107
32.0530000000	93
32.0830000000	87
32.1130000000	101
32.1430000000	104
32.1730000000	106
32.2030000000	101
32.2330000000	108
32.2630000000	101
32.2930000000	98
32.3230000000	103
32.3530000000	111
32.3830000000	125
32.4130000000	124
32.4430000000	100
32.4730000000	104
32.5030000000	109
32.5330000000	120
32.5630000000	107
32.5930000000	103
32.6230000000	104
32.6530000000	106
32.6830000000	96
32.7130000000	93
32.7430000000	110
32.7730000000	97
32.8030000000	86
32.8330000000	118
32.8630000000	124
32.8930000000	105
32.9230000000	104
32.9530000000	102
32.9830000000	122
33.0130000000	115
33.0430000000	100
33.0730000000	119
33.1030000000	124
33.1330000000	108
33.1630000000	117
33.1930000000	117
33.2230000000	130
33.2530000000	123
33.2830000000	137
33.3130000000	146
33.3430000000	151
33.3730000000	200
33.4030000000	264
33.4330000000	393
33.4630000000	572
33.4930000000	863
33.5230000000	1278
33.5530000000	1974
33.5830000000	2789
33.6130000000	3586
33.6430000000	3436
33.6730000000	2757
33.7030000000	1855
33.7330000000	1220
33.7630000000	749
33.7930000000	436
33.8230000000	279
33.8530000000	197
33.8830000000	175
33.9130000000	132
33.9430000000	108
33.9730000000	131
34.0030000000	151
34.0330000000	122
34.0630000000	117
34.0930000000	124
34.1230000000	111
34.1530000000	122
34.1830000000	111
34.2130000000	104
34.2430000000	98
34.2730000000	94
34.3030000000	94
34.3330000000	101
34.3630000000	88
34.3930000000	99
34.4230000000	99
34.4530000000	89
34.4830000000	89
34.5130000000	94
34.5430000000	98
34.5730000000	110
34.6030000000	94
34.6330000000	89
34.6630000000	76
34.6930000000	89
34.7230000000	96
34.7530000000	89
34.7830000000	108
34.8130000000	100
34.8430000000	89
34.8730000000	95
34.9030000000	94
34.9330000000	106
34.9630000000	82
34.9930000000	98
35.0230000000	88
35.0530000000	89
35.0830000000	88
35.1130000000	87
35.1430000000	98
35.1730000000	81
35.2030000000	89
35.2330000000	105
35.2630000000	107
35.2930000000	95
35.3230000000	88
35.3530000000	92
35.3830000000	94
35.4130000000	89
35.4430000000	99
35.4730000000	91
35.5030000000	83
35.5330000000	91
35.5630000000	93
35.5930000000	89
35.6230000000	101
35.6530000000	98
35.6830000000	97
35.7130000000	98
35.7430000000	94
35.7730000000	80
35.8030000000	93
35.8330000000	98
35.8630000000	91
35.8930000000	104
35.9230000000	103
35.9530000000	111
35.9830000000	105
36.0130000000	130
36.0430000000	160
36.0730000000	198
36.1030000000	236
36.1330000000	286
36.1630000000	320
36.1930000000	332
36.2230000000	268
36.2530000000	233
36.2830000000	179
36.3130000000	146
36.3430000000	124
36.3730000000	109
36.4030000000	99
36.4330000000	108
36.4630000000	99
36.4930000000	99
36.5230000000	97
36.5530000000	92
36.5830000000	90
36.6130000000	93
36.6430000000	96
36.6730000000	89
36.7030000000	81
36.7330000000	79
36.7630000000	86
36.7930000000	105
36.8230000000	94
36.8530000000	80
36.8830000000	75
36.9130000000	89
36.9430000000	93
36.9730000000	110
37.0030000000	101
37.0330000000	81
37.0630000000	91
37.0930000000	100
37.1230000000	94
37.1530000000	90
37.1830000000	99
37.2130000000	90
37.2430000000	81
37.2730000000	93
37.3030000000	99
37.3330000000	110
37.3630000000	87
37.3930000000	83
37.4230000000	94
37.4530000000	90
37.4830000000	79
37.5130000000	92
37.5430000000	98
37.5730000000	84
37.6030000000	93
37.6330000000	100
37.6630000000	103
37.6930000000	88
37.7230000000	96
37.7530000000	105
37.7830000000	117
37.8130000000	112
37.8430000000	120
37.8730000000	154
37.9030000000	168
37.9330000000	237
37.9630000000	311
37.9930000000	467
38.0230000000	689
38.0530000000	1051
38.0830000000	1607
38.1130000000	2198
38.1430000000	2706
38.1730000000	3024
38.2030000000	2709
38.2330000000	2132
38.2630000000	1566
38.2930000000	1051
38.3230000000	668
38.3530000000	433
38.3830000000	295
38.4130000000	184
38.4430000000	148
38.4730000000	134
38.5030000000	112
38.5330000000	114
38.5630000000	107
38.5930000000	120
38.6230000000	118
38.6530000000	96
38.6830000000	100
38.7130000000	94
38.7430000000	98
38.7730000000	110
38.8030000000	113
38.8330000000	107
38.8630000000	87
38.8930000000	95
38.9230000000	90
38.9530000000	84
38.9830000000	84
39.0130000000	74
39.0430000000	100
39.0730000000	89
39.1030000000	108
39.1330000000	101
39.1630000000	69
39.1930000000	87
39.2230000000	86
39.2530000000	83
39.2830000000	87
39.3130000000	99
39.3430000000	91
39.3730000000	92
39.4030000000	84
39.4330000000	76
39.4630000000	73
39.4930000000	90
39.5230000000	64
39.5530000000	78
39.5830000000	72
39.6130000000	63
39.6430000000	70
39.6730000000	83
39.7030000000	86
39.7330000000	75
39.7630000000	85
39.7930000000	73
39.8230000000	90
39.8530000000	80
39.8830000000	62
39.9130000000	85
39.9430000000	77
39.9730000000	95
40.0030000000	84
40.0330000000	81
40.0630000000	77
40.0930000000	80
40.1230000000	80
40.1530000000	71
40.1830000000	81
40.2130000000	72
40.2430000000	81
40.2730000000	76
40.3030000000	54
40.3330000000	84
40.3630000000	81
40.3930000000	71
40.4230000000	77
40.4530000000	85
40.4830000000	93
40.5130000000	73
40.5430000000	70
40.5730000000	74
40.6030000000	94
40.6330000000	92
40.6630000000	84
40.6930000000	99
40.7230000000	94
40.7530000000	70
40.7830000000	78
40.8130000000	78
40.8430000000	92
40.8730000000	77
40.9030000000	88
40.9330000000	68
40.9630000000	71
40.9930000000	69
41.0230000000	80
41.0530000000	86
41.0830000000	82
41.1130000000	80
41.1430000000	75
41.1730000000	66
41.2030000000	74
41.2330000000	80
41.2630000000	80
41.2930000000	77
41.3230000000	79
41.3530000000	82
41.3830000000	77
41.4130000000	74
41.4430000000	76
41.4730000000	74
41.5030000000	70
41.5330000000	71
41.5630000000	75
41.5930000000	77
41.6230000000	76
41.6530000000	75
41.6830000000	69
41.7130000000	79
41.7430000000	85
41.7730000000	83
41.8030000000	80
41.8330000000	70
41.8630000000	94
41.8930000000	89
41.9230000000	93
41.9530000000	103
41.9830000000	134
42.0130000000	174
42.0430000000	193
42.0730000000	321
42.1030000000	384
42.1330000000	352
42.1630000000	300
42.1930000000	263
42.2230000000	246
42.2530000000	196
42.2830000000	151
42.3130000000	125
42.3430000000	95
42.3730000000	90
42.4030000000	85
42.4330000000	86
42.4630000000	92
42.4930000000	90
42.5230000000	88
42.5530000000	88
42.5830000000	89
42.6130000000	83
42.6430000000	74
42.6730000000	78
42.7030000000	83
42.7330000000	75
42.7630000000	77
42.7930000000	73
42.8230000000	68
42.8530000000	87
42.8830000000	68
42.9130000000	86
42.9430000000	70
42.9730000000	64
43.0030000000	60
43.0330000000	70
43.0630000000	62
43.0930000000	88
43.1230000000	74
43.1530000000	68
43.1830000000	64
43.2130000000	69
43.2430000000	71
43.2730000000	69
43.3030000000	56
43.3330000000	83
43.3630000000	66
43.3930000000	59
43.4230000000	71
43.4530000000	86
43.4830000000	63
43.5130000000	80
43.5430000000	66
43.5730000000	74
43.6030000000	91
43.6330000000	53
43.6630000000	87
43.6930000000	93
43.7230000000	96
43.7530000000	117
43.7830000000	158
43.8130000000	181
43.8430000000	216
43.8730000000	228
43.9030000000	236
43.9330000000	222
43.9630000000	193
43.9930000000	193
44.0230000000	157
44.0530000000	108
44.0830000000	101
44.1130000000	86
44.1430000000	86
44.1730000000	71
44.2030000000	59
44.2330000000	72
44.2630000000	67
44.2930000000	72
44.3230000000	68
44.3530000000	68
44.3830000000	67
44.4130000000	79
44.4430000000	64
44.4730000000	66
44.5030000000	71
44.5330000000	62
44.5630000000	70
44.5930000000	61
44.6230000000	54
44.6530000000	56
44.6830000000	62
44.7130000000	66
44.7430000000	61
44.7730000000	68
44.8030000000	71
44.8330000000	59
44.8630000000	62
44.8930000000	79
44.9230000000	60
44.9530000000	67
44.9830000000	58
45.0130000000	67
45.0430000000	74
45.0730000000	58
45.1030000000	57
45.1330000000	75
45.1630000000	65
45.1930000000	75
45.2230000000	72
45.2530000000	73
45.2830000000	77
45.3130000000	66
45.3430000000	79
45.3730000000	63
45.4030000000	65
45.4330000000	62
45.4630000000	63
45.4930000000	64
45.5230000000	74
45.5530000000	69
45.5830000000	77
45.6130000000	79
45.6430000000	72
45.6730000000	68
45.7030000000	64
45.7330000000	66
45.7630000000	68
45.7930000000	72
45.8230000000	62
45.8530000000	58
45.8830000000	70
45.9130000000	68
45.9430000000	71
45.9730000000	77
46.0030000000	73
46.0330000000	81
46.0630000000	70
46.0930000000	64
46.1230000000	67
46.1530000000	73
46.1830000000	73
46.2130000000	82
46.2430000000	81
46.2730000000	87
46.3030000000	115
46.3330000000	156
46.3630000000	194
46.3930000000	261
46.4230000000	391
46.4530000000	587
46.4830000000	765
46.5130000000	835
46.5430000000	924
46.5730000000	831
46.6030000000	724
46.6330000000	615
46.6630000000	568
46.6930000000	458
46.7230000000	475
46.7530000000	522
46.7830000000	617
46.8130000000	728
46.8430000000	703
46.8730000000	668
46.9030000000	554
46.9330000000	491
46.9630000000	345
46.9930000000	277
47.0230000000	173
47.0530000000	129
47.0830000000	89
47.1130000000	74
47.1430000000	84
47.1730000000	72
47.2030000000	66
47.2330000000	74
47.2630000000	71
47.2930000000	64
47.3230000000	59
47.3530000000	57
47.3830000000	64
47.4130000000	87
47.4430000000	73
47.4730000000	53
47.5030000000	64
47.5330000000	69
47.5630000000	57
47.5930000000	66
47.6230000000	72
47.6530000000	72
47.6830000000	66
47.7130000000	50
47.7430000000	61
47.7730000000	63
47.8030000000	65
47.8330000000	58
47.8630000000	52
47.8930000000	42
47.9230000000	61
47.9530000000	91
47.9830000000	62
48.0130000000	57
48.0430000000	52
48.0730000000	66
48.1030000000	63
48.1330000000	51
48.1630000000	75
48.1930000000	54
48.2230000000	53
48.2530000000	58
48.2830000000	61
48.3130000000	52
48.3430000000	62
48.3730000000	61
48.4030000000	61
48.4330000000	66
48.4630000000	59
48.4930000000	64
48.5230000000	61
48.5530000000	45
48.5830000000	55
48.6130000000	62
48.6430000000	53
48.6730000000	61
48.7030000000	60
48.7330000000	48
48.7630000000	58
48.7930000000	68
48.8230000000	55
48.8530000000	52
48.8830000000	55
48.9130000000	54
48.9430000000	52
48.9730000000	59
49.0030000000	52
49.0330000000	41
49.0630000000	60
49.0930000000	44
49.1230000000	50
49.1530000000	54
49.1830000000	63
49.2130000000	57
49.2430000000	38
49.2730000000	57
49.3030000000	78
49.3330000000	51
49.3630000000	44
49.3930000000	51
49.4230000000	54
49.4530000000	50
49.4830000000	48
49.5130000000	50
49.5430000000	64
49.5730000000	56
49.6030000000	62
49.6330000000	53
49.6630000000	48
49.6930000000	44
49.7230000000	56
49.7530000000	42
49.7830000000	56
49.8130000000	60
49.8430000000	45
49.8730000000	45
49.9030000000	65
49.9330000000	40
49.9630000000	55
49.9930000000	63
50.0230000000	50
50.0530000000	62
50.0830000000	54
50.1130000000	41
50.1430000000	47
50.1730000000	65
50.2030000000	48
50.2330000000	50
50.2630000000	68
50.2930000000	56
50.3230000000	49
50.3530000000	46
50.3830000000	57
50.4130000000	81
50.4430000000	88
50.4730000000	106
50.5030000000	98
50.5330000000	95
50.5630000000	97
50.5930000000	93
50.6230000000	86
50.6530000000	79
50.6830000000	67
50.7130000000	62
50.7430000000	64
50.7730000000	50
50.8030000000	50
50.8330000000	55
50.8630000000	60
50.8930000000	61
50.9230000000	53
50.9530000000	56
50.9830000000	57
51.0130000000	63
51.0430000000	56
51.0730000000	47
51.1030000000	52
51.1330000000	58
51.1630000000	46
51.1930000000	53
51.2230000000	47
51.2530000000	45
51.2830000000	35
51.3130000000	43
51.3430000000	49
51.3730000000	47
51.4030000000	63
51.4330000000	56
51.4630000000	42
51.4930000000	51
51.5230000000	45
51.5530000000	42
51.5830000000	49
51.6130000000	49
51.6430000000	45
51.6730000000	48
51.7030000000	43
51.7330000000	45
51.7630000000	45
51.7930000000	50
51.8230000000	43
51.8530000000	47
51.8830000000	40
51.9130000000	45
51.9430000000	37
51.9730000000	47
52.0030000000	43
52.0330000000	41
52.0630000000	47
52.0930000000	45
52.1230000000	47
52.1530000000	50
52.1830000000	53
52.2130000000	55
52.2430000000	39
52.2730000000	53
52.3030000000	48
52.3330000000	49
52.3630000000	48
52.3930000000	53
52.4230000000	48
52.4530000000	49
52.4830000000	38
52.5130000000	45
52.5430000000	39
52.5730000000	44
52.6030000000	46
52.6330000000	44
52.6630000000	39
52.6930000000	41
52.7230000000	42
52.7530000000	40
52.7830000000	51
52.8130000000	41
52.8430000000	46
52.8730000000	64
52.9030000000	44
52.9330000000	43
52.9630000000	50
52.9930000000	56
53.0230000000	45
53.0530000000	39
53.0830000000	53
53.1130000000	41
53.1430000000	50
53.1730000000	46
53.2030000000	41
53.2330000000	45
53.2630000000	43
53.2930000000	55
53.3230000000	39
53.3530000000	37
53.3830000000	52
53.4130000000	60
53.4430000000	55
53.4730000000	52
53.5030000000	62
53.5330000000	96
53.5630000000	104
53.5930000000	104
53.6230000000	107
53.6530000000	95
53.6830000000	100
53.7130000000	96
53.7430000000	73
53.7730000000	78
53.8030000000	65
53.8330000000	44
53.8630000000	46
53.8930000000	45
53.9230000000	45
53.9530000000	45
53.9830000000	45
54.0130000000	45
54.0430000000	52
54.0730000000	50
54.1030000000	44
54.1330000000	44
54.1630000000	45
54.1930000000	44
54.2230000000	45
54.2530000000	45
54.2830000000	46
54.3130000000	39
54.3430000000	46
54.3730000000	44
54.4030000000	42
54.4330000000	43
54.4630000000	38
54.4930000000	53
54.5230000000	23
54.5530000000	35
54.5830000000	42
54.6130000000	31
54.6430000000	42
54.6730000000	39
54.7030000000	52
54.7330000000	39
54.7630000000	33
54.7930000000	37
54.8230000000	46
54.8530000000	45
54.8830000000	52
54.9130000000	54
54.9430000000	33
54.9730000000	43
55.0030000000	54
55.0330000000	52
55.0630000000	49
55.0930000000	42
55.1230000000	39
55.1530000000	38
55.1830000000	38
55.2130000000	39
55.2430000000	48
55.2730000000	44
55.3030000000	43
55.3330000000	50
55.3630000000	42
55.3930000000	42
55.4230000000	49
55.4530000000	40
55.4830000000	60
55.5130000000	41
55.5430000000	40
55.5730000000	48
55.6030000000	34
55.6330000000	32
55.6630000000	47
55.6930000000	50
55.7230000000	51
55.7530000000	56
55.7830000000	42
55.8130000000	39
55.8430000000	55
55.8730000000	49
55.9030000000	58
55.9330000000	47
55.9630000000	51
55.9930000000	43
56.0230000000	36
56.0530000000	43
56.0830000000	46
56.1130000000	39
56.1430000000	36
56.1730000000	44
56.2030000000	47
56.2330000000	59
56.2630000000	47
56.2930000000	38
56.3230000000	49
56.3530000000	49
56.3830000000	39
56.4130000000	39
56.4430000000	41
56.4730000000	36
56.5030000000	47
56.5330000000	40
56.5630000000	41
56.5930000000	52
56.6230000000	44
56.6530000000	46
56.6830000000	47
56.7130000000	41
56.7430000000	41
56.7730000000	32
56.8030000000	45
56.8330000000	53
56.8630000000	40
56.8930000000	51
56.9230000000	46
56.9530000000	47
56.9830000000	39
57.0130000000	30
57.0430000000	49
57.0730000000	43
57.1030000000	46
57.1330000000	45
57.1630000000	48
57.1930000000	41
57.2230000000	38
57.2530000000	40
57.2830000000	38
57.3130000000	39
57.3430000000	36
57.3730000000	44
57.4030000000	38
57.4330000000	47
57.4630000000	37
57.4930000000	48
57.5230000000	31
57.5530000000	53
57.5830000000	47
57.6130000000	46
57.6430000000	41
57.6730000000	32
57.7030000000	52
57.7330000000	31
57.7630000000	44
57.7930000000	35
57.8230000000	50
57.8530000000	41
57.8830000000	46
57.9130000000	35
57.9430000000	43
57.9730000000	53
58.0030000000	42
58.0330000000	58
58.0630000000	72
58.0930000000	61
58.1230000000	81
58.1530000000	89
58.1830000000	70
58.2130000000	77
58.2430000000	61
58.2730000000	70
58.3030000000	72
58.3330000000	80
58.3630000000	54
58.3930000000	48
58.4230000000	50
58.4530000000	39
58.4830000000	49
58.5130000000	49
58.5430000000	41
58.5730000000	66
58.6030000000	36
58.6330000000	50
58.6630000000	41
58.6930000000	40
58.7230000000	40
58.7530000000	43
58.7830000000	40
58.8130000000	38
58.8430000000	42
58.8730000000	40
58.9030000000	36
58.9330000000	38
58.9630000000	44
58.9930000000	48
59.0230000000	56
59.0530000000	62
59.0830000000	67
59.1130000000	66
59.1430000000	74
59.1730000000	72
59.2030000000	70
59.2330000000	65
59.2630000000	57
59.2930000000	71
59.3230000000	64
59.3530000000	46
59.3830000000	48
59.4130000000	41
59.4430000000	49
59.4730000000	42
59.5030000000	44
59.5330000000	48
59.5630000000	37
59.5930000000	33
59.6230000000	48
59.6530000000	39
59.6830000000	58
59.7130000000	53
59.7430000000	50
59.7730000000	40
59.8030000000	55
59.8330000000	70
59.8630000000	57
59.8930000000	78
59.9230000000	106
59.9530000000	129
59.9830000000	142
60.0130000000	120
60.0430000000	107
60.0730000000	106
60.1030000000	75
60.1330000000	70
60.1630000000	73
60.1930000000	48
60.2230000000	54
60.2530000000	47
60.2830000000	48
60.3130000000	37
60.3430000000	30
60.3730000000	37
60.4030000000	54
60.4330000000	56
60.4630000000	60
60.4930000000	60
60.5230000000	51
60.5530000000	53
60.5830000000	70
60.6130000000	49
60.6430000000	52
60.6730000000	53
60.7030000000	39
60.7330000000	40
60.7630000000	45
60.7930000000	39
60.8230000000	41
60.8530000000	40
60.8830000000	58
60.9130000000	45
60.9430000000	53
60.9730000000	46
61.0030000000	44
61.0330000000	43
61.0630000000	41
61.0930000000	44
61.1230000000	35
61.1530000000	45
61.1830000000	52
61.2130000000	41
61.2430000000	41
61.2730000000	49
61.3030000000	39
61.3330000000	42
61.3630000000	52
61.3930000000	48
61.4230000000	37
61.4530000000	43
61.4830000000	48
61.5130000000	35
61.5430000000	33
61.5730000000	46
61.6030000000	38
61.6330000000	37
61.6630000000	44
61.6930000000	50
61.7230000000	49
61.7530000000	48
61.7830000000	50
61.8130000000	53
61.8430000000	78
61.8730000000	77
61.9030000000	76
61.9330000000	56
61.9630000000	77
61.9930000000	69
62.0230000000	57
62.0530000000	56
62.0830000000	51
62.1130000000	41
62.1430000000	62
62.1730000000	50
62.2030000000	38
62.2330000000	34
62.2630000000	38
62.2930000000	42
62.3230000000	46
62.3530000000	51
62.3830000000	33
62.4130000000	33
62.4430000000	39
62.4730000000	29
62.5030000000	34
62.5330000000	47
62.5630000000	44
62.5930000000	32
62.6230000000	49
62.6530000000	37
62.6830000000	40
62.7130000000	41
62.7430000000	33
62.7730000000	35
62.8030000000	35
62.8330000000	44
62.8630000000	47
62.8930000000	44
62.9230000000	50
62.9530000000	48
62.9830000000	55
63.0130000000	43
63.0430000000	23
63.0730000000	34
63.1030000000	49
63.1330000000	45
63.1630000000	52
63.1930000000	46
63.2230000000	49
63.2530000000	41
63.2830000000	37
63.3130000000	48
63.3430000000	43
63.3730000000	38
63.4030000000	35
63.4330000000	41
63.4630000000	50
63.4930000000	38
63.5230000000	44
63.5530000000	47
63.5830000000	41
63.6130000000	43
63.6430000000	52
63.6730000000	50
63.7030000000	38
63.7330000000	32
63.7630000000	32
63.7930000000	45
63.8230000000	30
63.8530000000	37
63.8830000000	41
63.9130000000	32
63.9430000000	46
63.9730000000	40
64.0030000000	41
64.0330000000	48
64.0630000000	45
64.0930000000	40
64.1230000000	42
64.1530000000	30
64.1830000000	48
64.2130000000	41
64.2430000000	46
64.2730000000	49
64.3030000000	52
64.3330000000	43
64.3630000000	39
64.3930000000	35
64.4230000000	36
64.4530000000	46
64.4830000000	32
64.5130000000	24
64.5430000000	41
64.5730000000	30
64.6030000000	33
64.6330000000	32
64.6630000000	38
64.6930000000	37
64.7230000000	35
64.7530000000	38
64.7830000000	40
64.8130000000	44
64.8430000000	42
64.8730000000	34
64.9030000000	38
64.9330000000	47
64.9630000000	32
64.9930000000	32
65.0230000000	43
65.0530000000	36
65.0830000000	46
65.1130000000	39
65.1430000000	50
65.1730000000	38
65.2030000000	36
65.2330000000	28
65.2630000000	53
65.2930000000	47
65.3230000000	39
65.3530000000	31
65.3830000000	37
65.4130000000	41
65.4430000000	36
65.4730000000	35
65.5030000000	38
65.5330000000	27
65.5630000000	37
65.5930000000	41
65.6230000000	33
65.6530000000	45
65.6830000000	39
65.7130000000	50
65.7430000000	50
65.7730000000	50
65.8030000000	51
65.8330000000	52
65.8630000000	59
65.8930000000	55
65.9230000000	83
65.9530000000	93
65.9830000000	135
66.0130000000	131
66.0430000000	110
66.0730000000	102
66.1030000000	88
66.1330000000	128
66.1630000000	105
66.1930000000	90
66.2230000000	80
66.2530000000	76
66.2830000000	77
66.3130000000	56
66.3430000000	53
66.3730000000	63
66.4030000000	46
66.4330000000	42
66.4630000000	36
66.4930000000	40
66.5230000000	30
66.5530000000	45
66.5830000000	53
66.6130000000	39
66.6430000000	41
66.6730000000	39
66.7030000000	45
66.7330000000	34
66.7630000000	31
66.7930000000	35
66.8230000000	47
66.8530000000	51
66.8830000000	43
66.9130000000	43
66.9430000000	30
66.9730000000	46
67.0030000000	49
67.0330000000	45
67.0630000000	34
67.0930000000	44
67.1230000000	41
67.1530000000	44
67.1830000000	47
67.2130000000	38
67.2430000000	31
67.2730000000	37
67.3030000000	49
67.3330000000	35
67.3630000000	43
67.3930000000	35
67.4230000000	37
67.4530000000	39
67.4830000000	48
67.5130000000	29
67.5430000000	42
67.5730000000	49
67.6030000000	45
67.6330000000	49
67.6630000000	35
67.6930000000	43
67.7230000000	40
67.7530000000	39
67.7830000000	47
67.8130000000	46
67.8430000000	43
67.8730000000	39
67.9030000000	32
67.9330000000	44
67.9630000000	39
67.9930000000	44
68.0230000000	44
68.0530000000	39
68.0830000000	45
68.1130000000	41
68.1430000000	38
68.1730000000	42
68.2030000000	44
68.2330000000	42
68.2630000000	32
68.2930000000	40
68.3230000000	44
68.3530000000	40
68.3830000000	31
68.4130000000	39
68.4430000000	51
68.4730000000	35
68.5030000000	33
68.5330000000	34
68.5630000000	48
68.5930000000	43
68.6230000000	37
68.6530000000	37
68.6830000000	54
68.7130000000	48
68.7430000000	44
68.7730000000	50
68.8030000000	51
68.8330000000	76
68.8630000000	80
68.8930000000	91
68.9230000000	85
68.9530000000	78
68.9830000000	73
69.0130000000	84
69.0430000000	92
69.0730000000	71
69.1030000000	75
69.1330000000	69
69.1630000000	95
69.1930000000	94
69.2230000000	79
69.2530000000	83
69.2830000000	63
69.3130000000	63
69.3430000000	67
69.3730000000	61
69.4030000000	55
69.4330000000	50
69.4630000000	46
69.4930000000	55
69.5230000000	48
69.5530000000	40
69.5830000000	42
69.6130000000	46
69.6430000000	36
69.6730000000	37
69.7030000000	29
69.7330000000	48
69.7630000000	34
69.7930000000	36
69.8230000000	35
69.8530000000	44
69.8830000000	38
69.9130000000	45
69.9430000000	31
69.9730000000	52
70.0030000000	41
70.0330000000	47
70.0630000000	27
70.0930000000	35
70.1230000000	42
70.1530000000	43
70.1830000000	35
70.2130000000	41
70.2430000000	37
70.2730000000	40
70.3030000000	31
70.3330000000	39
70.3630000000	44
70.3930000000	39
70.4230000000	41
70.4530000000	47
70.4830000000	26
70.5130000000	38
70.5430000000	38
70.5730000000	38
70.6030000000	42
70.6330000000	29
70.6630000000	39
70.6930000000	49
70.7230000000	44
70.7530000000	44
70.7830000000	41
70.8130000000	37
70.8430000000	41
70.8730000000	47
70.9030000000	35
70.9330000000	50
70.9630000000	49
70.9930000000	42
71.0230000000	39
71.0530000000	42
71.0830000000	36
71.1130000000	33
71.1430000000	39
71.1730000000	36
71.2030000000	36
71.2330000000	40
71.2630000000	35
71.2930000000	30
71.3230000000	30
71.3530000000	35
71.3830000000	42
71.4130000000	28
71.4430000000	33
71.4730000000	39
71.5030000000	32
71.5330000000	41
71.5630000000	31
71.5930000000	31
71.6230000000	35
71.6530000000	26
71.6830000000	35
71.7130000000	32
71.7430000000	38
71.7730000000	51
71.8030000000	40
71.8330000000	50
71.8630000000	45
71.8930000000	36
71.9230000000	39
71.9530000000	31
71.9830000000	37
72.0130000000	34
72.0430000000	39
72.0730000000	49
72.1030000000	50
72.1330000000	50
72.1630000000	57
72.1930000000	63
72.2230000000	53
72.2530000000	67
72.2830000000	102
72.3130000000	90
72.3430000000	65
72.3730000000	70
72.4030000000	60
72.4330000000	47
72.4630000000	54
72.4930000000	65
72.5230000000	54
72.5530000000	57
72.5830000000	41
72.6130000000	47
72.6430000000	46
72.6730000000	53
72.7030000000	42
72.7330000000	42
72.7630000000	37
72.7930000000	36
72.8230000000	37
72.8530000000	44
72.8830000000	46
72.9130000000	43
72.9430000000	53
72.9730000000	41
73.0030000000	48
73.0330000000	41
73.0630000000	45
73.0930000000	39
73.1230000000	47
73.1530000000	39
73.1830000000	41
73.2130000000	59
73.2430000000	78
73.2730000000	85
73.3030000000	78
73.3330000000	81
73.3630000000	76
73.3930000000	81
73.4230000000	62
73.4530000000	67
73.4830000000	79
73.5130000000	74
73.5430000000	61
73.5730000000	48
73.6030000000	42
73.6330000000	42
73.6630000000	37
73.6930000000	41
73.7230000000	49
73.7530000000	43
73.7830000000	49
73.8130000000	38
73.8430000000	31
73.8730000000	40
73.9030000000	40
73.9330000000	49
73.9630000000	41
73.9930000000	39
74.0230000000	32
74.0530000000	32
74.0830000000	35
74.1130000000	35
74.1430000000	43
74.1730000000	32
74.2030000000	40
74.2330000000	31
74.2630000000	40
74.2930000000	30
74.3230000000	29
74.3530000000	46
74.3830000000	37
74.4130000000	29
74.4430000000	38
74.4730000000	37
74.5030000000	38
74.5330000000	42
74.5630000000	42
74.5930000000	40
74.6230000000	43
74.6530000000	48
74.6830000000	50
74.7130000000	43
74.7430000000	47
74.7730000000	58
74.8030000000	50
74.8330000000	86
74.8630000000	83
74.8930000000	97
74.9230000000	90
74.9530000000	78
74.9830000000	81
75.0130000000	70
75.0430000000	92
75.0730000000	109
75.1030000000	93
75.1330000000	103
75.1630000000	89
75.1930000000	81
75.2230000000	70
75.2530000000	72
75.2830000000	63
75.3130000000	56
75.3430000000	58
75.3730000000	60
75.4030000000	49
75.4330000000	40
75.4630000000	47
75.4930000000	49
75.5230000000	61
75.5530000000	62
75.5830000000	51
75.6130000000	43
75.6430000000	47
75.6730000000	54
75.7030000000	38
75.7330000000	45
75.7630000000	49
75.7930000000	38
75.8230000000	50
75.8530000000	36
75.8830000000	41
75.9130000000	39
75.9430000000	30
75.9730000000	40
76.0030000000	37
76.0330000000	37
76.0630000000	48
76.0930000000	44
76.1230000000	33
76.1530000000	34
76.1830000000	33
76.2130000000	40
76.2430000000	45
76.2730000000	41
76.3030000000	39
76.3330000000	48
76.3630000000	35
76.3930000000	42
76.4230000000	34
76.4530000000	31
76.4830000000	36
76.5130000000	36
76.5430000000	40
76.5730000000	51
76.6030000000	36
76.6330000000	37
76.6630000000	42
76.6930000000	43
76.7230000000	45
76.7530000000	47
76.7830000000	48
76.8130000000	60
76.8430000000	52
76.8730000000	46
76.9030000000	63
76.9330000000	48
76.9630000000	39
76.9930000000	56
77.0230000000	38
77.0530000000	47
77.0830000000	49
77.1130000000	49
77.1430000000	43
77.1730000000	48
77.2030000000	23
77.2330000000	45
77.2630000000	34
77.2930000000	37
77.3230000000	34
77.3530000000	37
77.3830000000	39
77.4130000000	39
77.4430000000	45
77.4730000000	59
77.5030000000	60
77.5330000000	77
77.5630000000	69
77.5930000000	53
77.6230000000	48
77.6530000000	47
77.6830000000	49
77.7130000000	47
77.7430000000	45
77.7730000000	52
77.8030000000	44
77.8330000000	38
77.8630000000	47
77.8930000000	43
77.9230000000	46
77.9530000000	42
77.9830000000	27
78.0130000000	36
78.0430000000	42
78.0730000000	40
78.1030000000	41
78.1330000000	40
78.1630000000	52
78.1930000000	47
78.2230000000	42
78.2530000000	27
78.2830000000	30
78.3130000000	43
78.3430000000	34
78.3730000000	40
78.4030000000	44
78.4330000000	39
78.4630000000	39
78.4930000000	40
78.5230000000	52
78.5530000000	36
78.5830000000	34
78.6130000000	48
78.6430000000	50
78.6730000000	42
78.7030000000	36
78.7330000000	44
78.7630000000	35
78.7930000000	40
78.8230000000	27
78.8530000000	37
78.8830000000	36
78.9130000000	40
78.9430000000	43
78.9730000000	48
79.0030000000	49
79.0330000000	39
79.0630000000	39
79.0930000000	43
79.1230000000	40
79.1530000000	32
79.1830000000	45
79.2130000000	39
79.2430000000	39
79.2730000000	46
79.3030000000	42
79.3330000000	39
79.3630000000	37
79.3930000000	48
79.4230000000	33
79.4530000000	33
79.4830000000	31
79.5130000000	35
79.5430000000	36
79.5730000000	48
79.6030000000	33
79.6330000000	36
79.6630000000	39
79.6930000000	35
79.7230000000	38
79.7530000000	31
79.7830000000	38
79.8130000000	36
79.8430000000	51
79.8730000000	40
79.9030000000	40
79.9330000000	37
79.9630000000	35
79.9930000000	30
80.0230000000	30
80.0530000000	39
80.0830000000	37
80.1130000000	45
80.1430000000	39
80.1730000000	35
80.2030000000	39
80.2330000000	32
80.2630000000	28
80.2930000000	36
80.3230000000	42
80.3530000000	42
80.3830000000	41
80.4130000000	35
80.4430000000	38
80.4730000000	47
80.5030000000	33
80.5330000000	40
80.5630000000	42
80.5930000000	53
80.6230000000	43
80.6530000000	39
80.6830000000	23
80.7130000000	41
80.7430000000	34
80.7730000000	31
80.8030000000	47
80.8330000000	45
80.8630000000	44
80.8930000000	35
80.9230000000	38
80.9530000000	43
80.9830000000	32
81.0130000000	36
81.0430000000	37
81.0730000000	41
81.1030000000	41
81.1330000000	33
81.1630000000	46
81.1930000000	30
81.2230000000	34
81.2530000000	37
81.2830000000	42
81.3130000000	45
81.3430000000	41
81.3730000000	54
81.4030000000	63
81.4330000000	75
81.4630000000	76
81.4930000000	70
81.5230000000	90
81.5530000000	81
81.5830000000	69
81.6130000000	66
81.6430000000	77
81.6730000000	87
81.7030000000	63
81.7330000000	60
81.7630000000	80
81.7930000000	56
81.8230000000	72
81.8530000000	45
81.8830000000	44
81.9130000000	38
81.9430000000	37
81.9730000000	30
82.0030000000	47
82.0330000000	40
82.0630000000	39
82.0930000000	34
82.1230000000	37
82.1530000000	43
82.1830000000	41
82.2130000000	29
82.2430000000	39
82.2730000000	40
82.3030000000	33
82.3330000000	42
82.3630000000	53
82.3930000000	43
82.4230000000	35
82.4530000000	35
82.4830000000	37
82.5130000000	31
82.5430000000	31
82.5730000000	43
82.6030000000	37
82.6330000000	40
82.6630000000	42
82.6930000000	42
82.7230000000	39
82.7530000000	47
82.7830000000	46
82.8130000000	34
82.8430000000	39
82.8730000000	34
82.9030000000	40
82.9330000000	35
82.9630000000	38
82.9930000000	29
83.0230000000	44
83.0530000000	35
83.0830000000	37
83.1130000000	49
83.1430000000	49
83.1730000000	40
83.2030000000	35
83.2330000000	38
83.2630000000	30
83.2930000000	32
83.3230000000	37
83.3530000000	37
83.3830000000	32
83.4130000000	42
83.4430000000	40
83.4730000000	44
83.5030000000	42
83.5330000000	49
83.5630000000	47
83.5930000000	44
83.6230000000	47
83.6530000000	55
83.6830000000	46
83.7130000000	70
83.7430000000	55
83.7730000000	40
83.8030000000	42
83.8330000000	48
83.8630000000	53
83.8930000000	45
83.9230000000	48
83.9530000000	49
83.9830000000	47
84.0130000000	43
84.0430000000	41
84.0730000000	34
84.1030000000	48
84.1330000000	57
84.1630000000	40
84.1930000000	38
84.2230000000	25
84.2530000000	52
84.2830000000	44
84.3130000000	41
84.3430000000	37
84.3730000000	33
84.4030000000	40
84.4330000000	27
84.4630000000	43
84.4930000000	35
84.5230000000	49
84.5530000000	45
84.5830000000	37
84.6130000000	41
84.6430000000	51
84.6730000000	53
84.7030000000	60
84.7330000000	51
84.7630000000	85
84.7930000000	100
84.8230000000	79
84.8530000000	73
84.8830000000	71
84.9130000000	56
84.9430000000	53
84.9730000000	58
85.0030000000	51
85.0330000000	58
85.0630000000	58
85.0930000000	61
85.1230000000	55
85.1530000000	42
85.1830000000	36
85.2130000000	47
85.2430000000	40
85.2730000000	43
85.3030000000	38
85.3330000000	51
85.3630000000	48
85.3930000000	43
85.4230000000	39
85.4530000000	41
85.4830000000	55
85.5130000000	23
85.5430000000	44
85.5730000000	43
85.6030000000	40
85.6330000000	32
85.6630000000	41
85.6930000000	24
85.7230000000	47
85.7530000000	37
85.7830000000	41
85.8130000000	41
85.8430000000	40
85.8730000000	38
85.9030000000	34
85.9330000000	42
85.9630000000	39
85.9930000000	46
86.0230000000	38
86.0530000000	33
86.0830000000	37
86.1130000000	36
86.1430000000	45
86.1730000000	37
86.2030000000	30
86.2330000000	40
86.2630000000	41
86.2930000000	31
86.3230000000	37
86.3530000000	41
86.3830000000	39
86.4130000000	31
86.4430000000	41
86.4730000000	37
86.5030000000	39
86.5330000000	27
86.5630000000	30
86.5930000000	38
86.6230000000	27
86.6530000000	37
86.6830000000	37
86.7130000000	25
86.7430000000	34
86.7730000000	35
86.8030000000	30
86.8330000000	27
86.8630000000	28
86.8930000000	33
86.9230000000	39
86.9530000000	38
86.9830000000	33
87.0130000000	38
87.0430000000	38
87.0730000000	38
87.1030000000	40
87.1330000000	39
87.1630000000	35
87.1930000000	31
87.2230000000	34
87.2530000000	34
87.2830000000	41
87.3130000000	56
87.3430000000	32
87.3730000000	39
87.4030000000	43
87.4330000000	39
87.4630000000	45
87.4930000000	30
87.5230000000	40
87.5530000000	43
87.5830000000	36
87.6130000000	27
87.6430000000	40
87.6730000000	33
87.7030000000	28
87.7330000000	37
87.7630000000	44
87.7930000000	39
87.8230000000	46
87.8530000000	43
87.8830000000	47
87.9130000000	30
87.9430000000	36
87.9730000000	29
88.0030000000	37
88.0330000000	38
88.0630000000	44
88.0930000000	38
88.1230000000	40
88.1530000000	37
88.1830000000	43
88.2130000000	37
88.2430000000	33
88.2730000000	40
88.3030000000	30
88.3330000000	34
88.3630000000	36
88.3930000000	35
88.4230000000	41
88.4530000000	34
88.4830000000	47
88.5130000000	41
88.5430000000	43
88.5730000000	30
88.6030000000	31
88.6330000000	32
88.6630000000	29
88.6930000000	37
88.7230000000	31
88.7530000000	34
88.7830000000	30
88.8130000000	33
88.8430000000	40
88.8730000000	32
88.9030000000	43
88.9330000000	38
88.9630000000	42
88.9930000000	36
89.0230000000	39
89.0530000000	46
89.0830000000	49
89.1130000000	53
89.1430000000	43
89.1730000000	65
89.2030000000	56
89.2330000000	47
89.2630000000	42
89.2930000000	43
89.3230000000	34
89.3530000000	36
89.3830000000	49
89.4130000000	53
89.4430000000	39
89.4730000000	48
89.5030000000	47
89.5330000000	34
89.5630000000	32
89.5930000000	39
89.6230000000	42
89.6530000000	40
89.6830000000	42
89.7130000000	43
89.7430000000	37
89.7730000000	36
89.8030000000	42
89.8330000000	54
89.8630000000	60
89.8930000000	44
89.9230000000	36
89.9530000000	45
89.9830000000	51
90.0130000000	43
90.0430000000	43
90.0730000000	55
90.1030000000	41
90.1330000000	50
90.1630000000	35
90.1930000000	35
90.2230000000	35
90.2530000000	30
90.2830000000	36
90.3130000000	48
90.3430000000	37
90.3730000000	39
90.4030000000	37
90.4330000000	38
90.4630000000	44
90.4930000000	39
90.5230000000	39
90.5530000000	41
90.5830000000	36
90.6130000000	34
90.6430000000	41
90.6730000000	40
90.7030000000	31
90.7330000000	29
90.7630000000	43
90.7930000000	44
90.8230000000	38
90.8530000000	33
90.8830000000	43
90.9130000000	39
90.9430000000	34
90.9730000000	33
91.0030000000	39
91.0330000000	38
91.0630000000	29
91.0930000000	36
91.1230000000	47
91.1530000000	32
91.1830000000	34
91.2130000000	41
91.2430000000	31
91.2730000000	33
91.3030000000	35
91.3330000000	43
91.3630000000	40
91.3930000000	41
91.4230000000	37
91.4530000000	40
91.4830000000	37
91.5130000000	35
91.5430000000	36
91.5730000000	37
91.6030000000	40
91.6330000000	45
91.6630000000	44
91.6930000000	35
91.7230000000	34
91.7530000000	43
91.7830000000	28
91.8130000000	41
91.8430000000	34
91.8730000000	32
91.9030000000	37
91.9330000000	46
91.9630000000	31
91.9930000000	39
92.0230000000	23
92.0530000000	38
92.0830000000	33
92.1130000000	33
92.1430000000	40
92.1730000000	40
92.2030000000	36
92.2330000000	37
92.2630000000	35
92.2930000000	33
92.3230000000	42
92.3530000000	35
92.3830000000	35
92.4130000000	39
92.4430000000	36
92.4730000000	25
92.5030000000	36
92.5330000000	32
92.5630000000	41
92.5930000000	31
92.6230000000	38
92.6530000000	34
92.6830000000	38
92.7130000000	34
92.7430000000	54
92.7730000000	55
92.8030000000	45
92.8330000000	40
92.8630000000	45
92.8930000000	31
92.9230000000	49
92.9530000000	40
92.9830000000	39
93.0130000000	48
93.0430000000	48
93.0730000000	35
93.1030000000	39
93.1330000000	31
93.1630000000	30
93.1930000000	42
93.2230000000	44
93.2530000000	42
93.2830000000	39
93.3130000000	32
93.3430000000	31
93.3730000000	37
93.4030000000	36
93.4330000000	39
93.4630000000	32
93.4930000000	41
93.5230000000	41
93.5530000000	35
93.5830000000	31
93.6130000000	29
93.6430000000	30
93.6730000000	32
93.7030000000	34
93.7330000000	42
93.7630000000	45
93.7930000000	41
93.8230000000	32
93.8530000000	45
93.8830000000	43
93.9130000000	34
93.9430000000	51
93.9730000000	41
94.0030000000	40
94.0330000000	44
94.0630000000	28
94.0930000000	43
94.1230000000	39
94.1530000000	41
94.1830000000	45
94.2130000000	53
94.2430000000	50
94.2730000000	44
94.3030000000	40
94.3330000000	49
94.3630000000	47
94.3930000000	54
94.4230000000	60
94.4530000000	53
94.4830000000	56
94.5130000000	59
94.5430000000	62
94.5730000000	61
94.6030000000	47
94.6330000000	44
94.6630000000	48
94.6930000000	46
94.7230000000	48
94.7530000000	60
94.7830000000	57
94.8130000000	44
94.8430000000	45
94.8730000000	30
94.9030000000	44
94.9330000000	49
94.9630000000	35
94.9930000000	43
95.0230000000	37
95.0530000000	42
95.0830000000	34
95.1130000000	40
95.1430000000	26
95.1730000000	32
95.2030000000	41
95.2330000000	46
95.2630000000	47
95.2930000000	31
95.3230000000	38
95.3530000000	33
95.3830000000	41
95.4130000000	41
95.4430000000	31
95.4730000000	37
95.5030000000	35
95.5330000000	32
95.5630000000	32
95.5930000000	38
95.6230000000	33
95.6530000000	38
95.6830000000	43
95.7130000000	37
95.7430000000	36
95.7730000000	44
95.8030000000	41
95.8330000000	36
95.8630000000	40
95.8930000000	44
95.9230000000	44
95.9530000000	36
95.9830000000	37
96.0130000000	49
96.0430000000	39
96.0730000000	34
96.1030000000	43
96.1330000000	36
96.1630000000	36
96.1930000000	37
96.2230000000	38
96.2530000000	35
96.2830000000	44
96.3130000000	46
96.3430000000	34
96.3730000000	31
96.4030000000	36
96.4330000000	40
96.4630000000	28
96.4930000000	37
96.5230000000	34
96.5530000000	34
96.5830000000	41
96.6130000000	45
96.6430000000	40
96.6730000000	45
96.7030000000	43
96.7330000000	36
96.7630000000	40
96.7930000000	38
96.8230000000	40
96.8530000000	39
96.8830000000	34
96.9130000000	38
96.9430000000	29
96.9730000000	36
97.0030000000	44
97.0330000000	35
97.0630000000	31
97.0930000000	32
97.1230000000	41
97.1530000000	47
97.1830000000	31
97.2130000000	37
97.2430000000	30
97.2730000000	24
97.3030000000	31
97.3330000000	37
97.3630000000	41
97.3930000000	35
97.4230000000	29
97.4530000000	33
97.4830000000	38
97.5130000000	33
97.5430000000	35
97.5730000000	23
97.6030000000	41
97.6330000000	46
97.6630000000	48
97.6930000000	43
97.7230000000	31
97.7530000000	30
97.7830000000	34
97.8130000000	27
97.8430000000	48
97.8730000000	37
97.9030000000	32
97.9330000000	34
97.9630000000	36
97.9930000000	35
98.0230000000	48
98.0530000000	45
98.0830000000	30
98.1130000000	42
98.1430000000	46
98.1730000000	39
98.2030000000	33
98.2330000000	33
98.2630000000	27
98.2930000000	44
98.3230000000	42
98.3530000000	38
98.3830000000	37
98.4130000000	32
98.4430000000	30
98.4730000000	48
98.5030000000	37
98.5330000000	39
98.5630000000	43
98.5930000000	35
98.6230000000	44
98.6530000000	39
98.6830000000	34
98.7130000000	37
98.7430000000	43
98.7730000000	55
98.8030000000	52
98.8330000000	36
98.8630000000	39
98.8930000000	50
98.9230000000	37
98.9530000000	44
98.9830000000	29
99.0130000000	42
99.0430000000	52
99.0730000000	42
99.1030000000	40
99.1330000000	41
99.1630000000	33
99.1930000000	33
99.2230000000	35
99.2530000000	46
99.2830000000	50
99.3130000000	36
99.3430000000	45
99.3730000000	43
99.4030000000	25
99.4330000000	40
99.4630000000	34
99.4930000000	44
99.5230000000	36
99.5530000000	39
99.5830000000	34
99.6130000000	35
99.6430000000	40
99.6730000000	43
99.7030000000	43
99.7330000000	35
99.7630000000	41
99.7930000000	48
99.8230000000	31
99.8530000000	45
99.8830000000	41
99.9130000000	31
99.9430000000	36
99.9730000000	31
100.0030000000	32
100.0330000000	28
100.0630000000	35
100.0930000000	27
100.1230000000	29
100.1530000000	40
100.1830000000	37
100.2130000000	37
100.2430000000	44
100.2730000000	43
100.3030000000	35
100.3330000000	39
100.3630000000	42
100.3930000000	35
100.4230000000	46
100.4530000000	37
100.4830000000	23
100.5130000000	39
100.5430000000	41
100.5730000000	34
100.6030000000	24
100.6330000000	41
100.6630000000	39
100.6930000000	32
100.7230000000	35
100.7530000000	37
100.7830000000	42
100.8130000000	33
100.8430000000	27
100.8730000000	41
100.9030000000	33
100.9330000000	38
100.9630000000	40
100.9930000000	35
101.0230000000	38
101.0530000000	31
101.0830000000	40
101.1130000000	33
101.1430000000	26
101.1730000000	28
101.2030000000	43
101.2330000000	40
101.2630000000	38
101.2930000000	36
101.3230000000	47
101.3530000000	38
101.3830000000	29
101.4130000000	26
101.4430000000	37
101.4730000000	46
101.5030000000	32
101.5330000000	33
101.5630000000	35
101.5930000000	36
101.6230000000	37
101.6530000000	32
101.6830000000	32
101.7130000000	32
101.7430000000	35
101.7730000000	36
101.8030000000	37
101.8330000000	42
101.8630000000	30
101.8930000000	28
101.9230000000	31
101.9530000000	32
101.9830000000	39
102.0130000000	41
102.0430000000	31
102.0730000000	41
102.1030000000	26
102.1330000000	37
102.1630000000	43
102.1930000000	36
102.2230000000	30
102.2530000000	37
102.2830000000	23
102.3130000000	44
102.3430000000	42
102.3730000000	37
102.4030000000	30
102.4330000000	38
102.4630000000	43
102.4930000000	29
102.5230000000	26
102.5530000000	36
102.5830000000	33
102.6130000000	30
102.6430000000	32
102.6730000000	39
102.7030000000	38
102.7330000000	38
102.7630000000	36
102.7930000000	39
102.8230000000	35
102.8530000000	43
102.8830000000	37
102.9130000000	30
102.9430000000	30
102.9730000000	30
103.0030000000	41
103.0330000000	55
103.0630000000	43
103.0930000000	38
103.1230000000	40
103.1530000000	40
103.1830000000	43
103.2130000000	36
103.2430000000	31
103.2730000000	36
103.3030000000	35
103.3330000000	34
103.3630000000	41
103.3930000000	37
103.4230000000	29
103.4530000000	32
103.4830000000	41
103.5130000000	37
103.5430000000	32
103.5730000000	40
103.6030000000	27
103.6330000000	24
103.6630000000	36
103.6930000000	33
103.7230000000	48
103.7530000000	32
103.7830000000	32
103.8130000000	36
103.8430000000	42
103.8730000000	34
103.9030000000	36
103.9330000000	36
103.9630000000	34
103.9930000000	40
104.0230000000	54
104.0530000000	34
104.0830000000	45
104.1130000000	41
104.1430000000	43
104.1730000000	55
104.2030000000	41
104.2330000000	52
104.2630000000	40
104.2930000000	49
104.3230000000	31
104.3530000000	39
104.3830000000	42
104.4130000000	42
104.4430000000	37
104.4730000000	50
104.5030000000	49
104.5330000000	31
104.5630000000	43
104.5930000000	33
104.6230000000	36
104.6530000000	37
104.6830000000	29
104.7130000000	43
104.7430000000	42
104.7730000000	35
104.8030000000	45
104.8330000000	39
104.8630000000	40
104.8930000000	45
104.9230000000	36
104.9530000000	29
104.9830000000	35
105.0130000000	45
105.0430000000	40
105.0730000000	33
105.1030000000	38
105.1330000000	47
105.1630000000	51
105.1930000000	44
105.2230000000	38
105.2530000000	44
105.2830000000	48
105.3130000000	42
105.3430000000	33
105.3730000000	45
105.4030000000	50
105.4330000000	32
105.4630000000	36
105.4930000000	47
105.5230000000	34
105.5530000000	35
105.5830000000	36
105.6130000000	36
105.6430000000	30
105.6730000000	33
105.7030000000	37
105.7330000000	36
105.7630000000	49
105.7930000000	41
105.8230000000	30
105.8530000000	27
105.8830000000	36
105.9130000000	34
105.9430000000	36
105.9730000000	38
106.0030000000	40
106.0330000000	39
106.0630000000	31
106.0930000000	27
106.1230000000	38
106.1530000000	45
106.1830000000	29
106.2130000000	32
106.2430000000	29
106.2730000000	28
106.3030000000	30
106.3330000000	31
106.3630000000	40
106.3930000000	41
106.4230000000	30
106.4530000000	35
106.4830000000	35
106.5130000000	39
106.5430000000	31
106.5730000000	30
106.6030000000	37
106.6330000000	39
106.6630000000	37
106.6930000000	34
106.7230000000	26
106.7530000000	32
106.7830000000	37
106.8130000000	32
106.8430000000	29
106.8730000000	32
106.9030000000	25
106.9330000000	34
106.9630000000	37
106.9930000000	33
107.0230000000	29
107.0530000000	36
107.0830000000	31
107.1130000000	39
107.1430000000	36
107.1730000000	40
107.2030000000	28
107.2330000000	36
107.2630000000	40
107.2930000000	40
107.3230000000	29
107.3530000000	37
107.3830000000	34
107.4130000000	40
107.4430000000	39
107.4730000000	33
107.5030000000	29
107.5330000000	37
107.5630000000	41
107.5930000000	39
107.6230000000	32
107.6530000000	29
107.6830000000	33
107.7130000000	32
107.7430000000	36
107.7730000000	35
107.8030000000	32
107.8330000000	33
107.8630000000	30
107.8930000000	33
107.9230000000	35
107.9530000000	32
107.9830000000	37
108.0130000000	37
108.0430000000	34
108.0730000000	29
108.1030000000	37
108.1330000000	33
108.1630000000	32
108.1930000000	37
108.2230000000	37
108.2530000000	45
108.2830000000	36
108.3130000000	28
108.3430000000	45
108.3730000000	42
108.4030000000	27
108.4330000000	30
108.4630000000	37
108.4930000000	39
108.5230000000	38
108.5530000000	47
108.5830000000	45
108.6130000000	46
108.6430000000	56
108.6730000000	51
108.7030000000	50
108.7330000000	48
108.7630000000	52
108.7930000000	37
108.8230000000	42
108.8530000000	54
108.8830000000	37
108.9130000000	43
108.9430000000	58
108.9730000000	50
109.0030000000	47
109.0330000000	53
109.0630000000	55
109.0930000000	66
109.1230000000	52
109.1530000000	42
109.1830000000	57
109.2130000000	38
109.2430000000	37
109.2730000000	51
109.3030000000	51
109.3330000000	57
109.3630000000	51
109.3930000000	50
109.4230000000	41
109.4530000000	39
109.4830000000	44
109.5130000000	34
109.5430000000	31
109.5730000000	32
109.6030000000	32
109.6330000000	43
109.6630000000	34
109.6930000000	37
109.7230000000	29
109.7530000000	32
109.7830000000	37
109.8130000000	31
109.8430000000	38
109.8730000000	28
109.9030000000	36
109.9330000000	36
109.9630000000	37
109.9930000000	36
110.0230000000	34
110.0530000000	25
110.0830000000	37
110.1130000000	28
110.1430000000	38
110.1730000000	43
110.2030000000	37
110.2330000000	42
110.2630000000	37
110.2930000000	43
110.3230000000	30
110.3530000000	31
110.3830000000	37
110.4130000000	43
110.4430000000	39
110.4730000000	39
110.5030000000	39
110.5330000000	29
110.5630000000	34
110.5930000000	39
110.6230000000	39
110.6530000000	44
110.6830000000	42
110.7130000000	33
110.7430000000	42
110.7730000000	35
110.8030000000	44
110.8330000000	50
110.8630000000	43
110.8930000000	46
110.9230000000	43
110.9530000000	37
110.9830000000	41
111.0130000000	41
111.0430000000	44
111.0730000000	39
111.1030000000	36
111.1330000000	43
111.1630000000	35
111.1930000000	36
111.2230000000	46
111.2530000000	35
111.2830000000	37
111.3130000000	37
111.3430000000	48
111.3730000000	32
111.4030000000	32
111.4330000000	36
111.4630000000	29
111.4930000000	40
111.5230000000	36
111.5530000000	39
111.5830000000	41
111.6130000000	36
111.6430000000	40
111.6730000000	36
111.7030000000	39
111.7330000000	41
111.7630000000	43
111.7930000000	28
111.8230000000	42
111.8530000000	40
111.8830000000	36
111.9130000000	30
111.9430000000	34
111.9730000000	38
112.0030000000	48
112.0330000000	38
112.0630000000	26
112.0930000000	33
112.1230000000	45
112.1530000000	30
112.1830000000	34
112.2130000000	30
112.2430000000	31
112.2730000000	35
112.3030000000	29
112.3330000000	28
112.3630000000	33
112.3930000000	52
112.4230000000	44
112.4530000000	31
112.4830000000	36
112.5130000000	42
112.5430000000	46
112.5730000000	43
112.6030000000	40
112.6330000000	37
112.6630000000	43
112.6930000000	44
112.7230000000	37
112.7530000000	31
112.7830000000	32
112.8130000000	41
112.8430000000	38
112.8730000000	32
112.9030000000	31
112.9330000000	32
112.9630000000	34
112.9930000000	38
113.0230000000	36
113.0530000000	39
113.0830000000	38
113.1130000000	49
113.1430000000	32
113.1730000000	44
113.2030000000	36
113.2330000000	52
113.2630000000	43
113.2930000000	42
113.3230000000	36
113.3530000000	45
113.3830000000	42
113.4130000000	35
113.4430000000	37
113.4730000000	39
113.5030000000	43
113.5330000000	36
113.5630000000	33
113.5930000000	43
113.6230000000	48
113.6530000000	25
113.6830000000	35
113.7130000000	36
113.7430000000	32
113.7730000000	28
113.8030000000	38
113.8330000000	37
113.8630000000	37
113.8930000000	42
113.9230000000	45
113.9530000000	49
113.9830000000	41
114.0130000000	29
114.0430000000	45
114.0730000000	43
114.1030000000	33
114.1330000000	47
114.1630000000	37
114.1930000000	31
114.2230000000	40
114.2530000000	40
114.2830000000	31
114.3130000000	32
114.3430000000	41
114.3730000000	37
114.4030000000	39
114.4330000000	42
114.4630000000	1
114.4930000000	1
114.5230000000	1
114.5530000000	1
114.5830000000	1
