0.3130000000	1
0.3430000000	1
0.3730000000	1
0.4030000000	1
0.4330000000	2
0.4630000000	1
0.4930000000	1
0.5230000000	1
0.5530000000	1
0.5830000000	1
0.6130000000	1
0.6430000000	1
0.6730000000	1
0.7030000000	1
0.7330000000	2
0.7630000000	1
0.7930000000	1
0.8230000000	1
0.8530000000	1
0.8830000000	1
0.9130000000	2
0.9430000000	1
0.9730000000	1
1.0030000000	1
1.0330000000	1
1.0630000000	2
1.0930000000	1
1.1230000000	1
1.1530000000	1
1.1830000000	1
1.2130000000	2
1.2430000000	1
1.2730000000	1
1.3030000000	1
1.3330000000	1
1.3630000000	1
1.3930000000	1
1.4230000000	1
1.4530000000	1
1.4830000000	2
1.5130000000	1
1.5430000000	1
1.5730000000	1
1.6030000000	1
1.6330000000	1
1.6630000000	1
1.6930000000	2
1.7230000000	1
1.7530000000	1
1.7830000000	2
1.8130000000	1
1.8430000000	2
1.8730000000	1
1.9030000000	1
1.9330000000	1
1.9630000000	2
1.9930000000	1
2.0230000000	2
2.0530000000	2
2.0830000000	2
2.1130000000	1
2.1430000000	1
2.1730000000	2
2.2030000000	1
2.2330000000	1
2.2630000000	1
2.2930000000	1
2.3230000000	1
2.3530000000	2
2.3830000000	2
2.4130000000	1
2.4430000000	1
2.4730000000	1
2.5030000000	2
2.5330000000	2
2.5630000000	1
2.5930000000	1
2.6230000000	1
2.6530000000	2
2.6830000000	1
2.7130000000	1
2.7430000000	2
2.7730000000	2
2.8030000000	3
2.8330000000	4
2.8630000000	1
2.8930000000	1
2.9230000000	1
2.9530000000	1
2.9830000000	1
3.0130000000	2
3.0430000000	1
3.0730000000	3
3.1030000000	1
3.1330000000	1
3.1630000000	2
3.1930000000	2
3.2230000000	1
3.2530000000	1
3.2830000000	1
3.3130000000	2
3.3430000000	1
3.3730000000	2
3.4030000000	1
3.4330000000	2
3.4630000000	2
3.4930000000	3
3.5230000000	2
3.5530000000	2
3.5830000000	1
3.6130000000	4
3.6430000000	2
3.6730000000	1
3.7030000000	1
3.7330000000	3
3.7630000000	1
3.7930000000	2
3.8230000000	3
3.8530000000	1
3.8830000000	2
3.9130000000	3
3.9430000000	1
3.9730000000	2
4.0030000000	3
4.0330000000	2
4.0630000000	2
4.0930000000	5
4.1230000000	3
4.1530000000	1
4.1830000000	3
4.2130000000	5
4.2430000000	3
4.2730000000	5
4.3030000000	3
4.3330000000	2
4.3630000000	3
4.3930000000	3
4.4230000000	6
4.4530000000	5
4.4830000000	9
4.5130000000	24
4.5430000000	33
4.5730000000	51
4.6030000000	80
4.6330000000	103
4.6630000000	125
4.6930000000	111
4.7230000000	119
4.7530000000	157
4.7830000000	142
4.8130000000	137
4.8430000000	145
4.8730000000	141
4.9030000000	146
4.9330000000	126
4.9630000000	120
4.9930000000	126
5.0230000000	133
5.0530000000	154
5.0830000000	137
5.1130000000	131
5.1430000000	163
5.1730000000	146
5.2030000000	130
5.2330000000	142
5.2630000000	144
5.2930000000	147
5.3230000000	145
5.3530000000	164
5.3830000000	163
5.4130000000	123
5.4430000000	142
5.4730000000	144
5.5030000000	134
5.5330000000	140
5.5630000000	137
5.5930000000	158
5.6230000000	133
5.6530000000	151
5.6830000000	166
5.7130000000	134
5.7430000000	145
5.7730000000	162
5.8030000000	155
5.8330000000	144
5.8630000000	160
5.8930000000	165
5.9230000000	164
5.9530000000	157
5.9830000000	145
6.0130000000	151
6.0430000000	138
6.0730000000	159
6.1030000000	144
6.1330000000	131
6.1630000000	150
6.1930000000	149
6.2230000000	157
6.2530000000	137
6.2830000000	159
6.3130000000	129
6.3430000000	133
6.3730000000	147
6.4030000000	141
6.4330000000	149
6.4630000000	138
6.4930000000	155
6.5230000000	150
6.5530000000	142
6.5830000000	131
6.6130000000	154
6.6430000000	151
6.6730000000	149
6.7030000000	143
6.7330000000	160
6.7630000000	148
6.7930000000	134
6.8230000000	150
6.8530000000	146
6.8830000000	134
6.9130000000	140
6.9430000000	143
6.9730000000	149
7.0030000000	147
7.0330000000	147
7.0630000000	123
7.0930000000	137
7.1230000000	149
7.1530000000	132
7.1830000000	141
7.2130000000	145
7.2430000000	143
7.2730000000	156
7.3030000000	152
7.3330000000	131
7.3630000000	137
7.3930000000	138
7.4230000000	132
7.4530000000	141
7.4830000000	163
7.5130000000	146
7.5430000000	139
7.5730000000	159
7.6030000000	152
7.6330000000	134
7.6630000000	133
7.6930000000	145
7.7230000000	140
7.7530000000	130
7.7830000000	146
7.8130000000	144
7.8430000000	126
7.8730000000	141
7.9030000000	156
7.9330000000	152
7.9630000000	153
7.9930000000	143
8.0230000000	136
8.0530000000	156
8.0830000000	133
8.1130000000	146
8.1430000000	148
8.1730000000	136
8.2030000000	148
8.2330000000	148
8.2630000000	143
8.2930000000	139
8.3230000000	159
8.3530000000	141
8.3830000000	148
8.4130000000	160
8.4430000000	134
8.4730000000	133
8.5030000000	155
8.5330000000	145
8.5630000000	132
8.5930000000	137
8.6230000000	156
8.6530000000	136
8.6830000000	154
8.7130000000	132
8.7430000000	149
8.7730000000	127
8.8030000000	150
8.8330000000	162
8.8630000000	154
8.8930000000	160
8.9230000000	141
8.9530000000	179
8.9830000000	139
9.0130000000	124
9.0430000000	130
9.0730000000	145
9.1030000000	119
9.1330000000	157
9.1630000000	146
9.1930000000	148
9.2230000000	158
9.2530000000	133
9.2830000000	130
9.3130000000	147
9.3430000000	131
9.3730000000	151
9.4030000000	137
9.4330000000	149
9.4630000000	132
9.4930000000	142
9.5230000000	165
9.5530000000	146
9.5830000000	128
9.6130000000	134
9.6430000000	154
9.6730000000	159
9.7030000000	145
9.7330000000	150
9.7630000000	138
9.7930000000	141
9.8230000000	151
9.8530000000	144
9.8830000000	151
9.9130000000	157
9.9430000000	152
9.9730000000	157
10.0030000000	161
10.0330000000	130
10.0630000000	155
10.0930000000	116
10.1230000000	154
10.1530000000	172
10.1830000000	131
10.2130000000	156
10.2430000000	155
10.2730000000	134
10.3030000000	143
10.3330000000	160
10.3630000000	153
10.3930000000	166
10.4230000000	157
10.4530000000	132
10.4830000000	129
10.5130000000	153
10.5430000000	140
10.5730000000	140
10.6030000000	173
10.6330000000	170
10.6630000000	156
10.6930000000	158
10.7230000000	137
10.7530000000	149
10.7830000000	148
10.8130000000	168
10.8430000000	133
10.8730000000	136
10.9030000000	136
10.9330000000	141
10.9630000000	142
10.9930000000	148
11.0230000000	153
11.0530000000	152
11.0830000000	164
11.1130000000	117
11.1430000000	136
11.1730000000	148
11.2030000000	183
11.2330000000	153
11.2630000000	126
11.2930000000	135
11.3230000000	130
11.3530000000	131
11.3830000000	144
11.4130000000	141
11.4430000000	144
11.4730000000	166
11.5030000000	135
11.5330000000	147
11.5630000000	141
11.5930000000	169
11.6230000000	132
11.6530000000	153
11.6830000000	167
11.7130000000	152
11.7430000000	145
11.7730000000	130
11.8030000000	131
11.8330000000	126
11.8630000000	171
11.8930000000	166
11.9230000000	156
11.9530000000	167
11.9830000000	141
12.0130000000	140
12.0430000000	142
12.0730000000	171
12.1030000000	159
12.1330000000	125
12.1630000000	134
12.1930000000	142
12.2230000000	137
12.2530000000	135
12.2830000000	128
12.3130000000	120
12.3430000000	143
12.3730000000	173
12.4030000000	160
12.4330000000	145
12.4630000000	142
12.4930000000	130
12.5230000000	146
12.5530000000	144
12.5830000000	130
12.6130000000	132
12.6430000000	142
12.6730000000	148
12.7030000000	152
12.7330000000	151
12.7630000000	149
12.7930000000	169
12.8230000000	152
12.8530000000	129
12.8830000000	140
12.9130000000	136
12.9430000000	116
12.9730000000	121
13.0030000000	145
13.0330000000	151
13.0630000000	141
13.0930000000	132
13.1230000000	128
13.1530000000	132
13.1830000000	147
13.2130000000	127
13.2430000000	149
13.2730000000	157
13.3030000000	130
13.3330000000	144
13.3630000000	149
13.3930000000	146
13.4230000000	132
13.4530000000	121
13.4830000000	140
13.5130000000	159
13.5430000000	180
13.5730000000	149
13.6030000000	161
13.6330000000	131
13.6630000000	142
13.6930000000	136
13.7230000000	149
13.7530000000	145
13.7830000000	147
13.8130000000	155
13.8430000000	170
13.8730000000	133
13.9030000000	149
13.9330000000	144
13.9630000000	139
13.9930000000	145
14.0230000000	141
14.0530000000	145
14.0830000000	143
14.1130000000	151
14.1430000000	147
14.1730000000	134
14.2030000000	146
14.2330000000	147
14.2630000000	123
14.2930000000	152
14.3230000000	136
14.3530000000	154
14.3830000000	159
14.4130000000	133
14.4430000000	124
14.4730000000	142
14.5030000000	143
14.5330000000	171
14.5630000000	139
14.5930000000	137
14.6230000000	124
14.6530000000	157
14.6830000000	160
14.7130000000	137
14.7430000000	171
14.7730000000	169
14.8030000000	169
14.8330000000	143
14.8630000000	151
14.8930000000	124
14.9230000000	145
14.9530000000	137
14.9830000000	155
15.0130000000	160
15.0430000000	148
15.0730000000	138
15.1030000000	153
15.1330000000	150
15.1630000000	147
15.1930000000	142
15.2230000000	167
15.2530000000	135
15.2830000000	170
15.3130000000	150
15.3430000000	158
15.3730000000	154
15.4030000000	153
15.4330000000	132
15.4630000000	136
15.4930000000	150
15.5230000000	149
15.5530000000	162
15.5830000000	152
15.6130000000	164
15.6430000000	142
15.6730000000	132
15.7030000000	154
15.7330000000	138
15.7630000000	148
15.7930000000	132
15.8230000000	140
15.8530000000	145
15.8830000000	138
15.9130000000	150
15.9430000000	138
15.9730000000	124
16.0030000000	142
16.0330000000	118
16.0630000000	138
16.0930000000	126
16.1230000000	155
16.1530000000	146
16.1830000000	144
16.2130000000	154
16.2430000000	145
16.2730000000	136
16.3030000000	143
16.3330000000	146
16.3630000000	146
16.3930000000	151
16.4230000000	133
16.4530000000	146
16.4830000000	138
16.5130000000	142
16.5430000000	152
16.5730000000	129
16.6030000000	166
16.6330000000	141
16.6630000000	128
16.6930000000	115
16.7230000000	139
16.7530000000	113
16.7830000000	137
16.8130000000	153
16.8430000000	166
16.8730000000	141
16.9030000000	138
16.9330000000	149
16.9630000000	159
16.9930000000	153
17.0230000000	175
17.0530000000	145
17.0830000000	148
17.1130000000	128
17.1430000000	145
17.1730000000	147
17.2030000000	130
17.2330000000	142
17.2630000000	149
17.2930000000	134
17.3230000000	128
17.3530000000	159
17.3830000000	153
17.4130000000	135
17.4430000000	141
17.4730000000	143
17.5030000000	152
17.5330000000	154
17.5630000000	168
17.5930000000	149
17.6230000000	146
17.6530000000	144
17.6830000000	139
17.7130000000	130
17.7430000000	129
17.7730000000	162
17.8030000000	158
17.8330000000	130
17.8630000000	128
17.8930000000	131
17.9230000000	139
17.9530000000	149
17.9830000000	152
18.0130000000	131
18.0430000000	122
18.0730000000	152
18.1030000000	135
18.1330000000	147
18.1630000000	141
18.1930000000	153
18.2230000000	183
18.2530000000	145
18.2830000000	138
18.3130000000	153
18.3430000000	141
18.3730000000	130
18.4030000000	143
18.4330000000	133
18.4630000000	134
18.4930000000	158
18.5230000000	138
18.5530000000	127
18.5830000000	153
18.6130000000	151
18.6430000000	145
18.6730000000	146
18.7030000000	145
18.7330000000	162
18.7630000000	151
18.7930000000	136
18.8230000000	153
18.8530000000	164
18.8830000000	148
18.9130000000	145
18.9430000000	154
18.9730000000	164
19.0030000000	161
19.0330000000	143
19.0630000000	162
19.0930000000	154
19.1230000000	148
19.1530000000	135
19.1830000000	153
19.2130000000	151
19.2430000000	146
19.2730000000	131
19.3030000000	132
19.3330000000	154
19.3630000000	177
19.3930000000	143
19.4230000000	146
19.4530000000	146
19.4830000000	152
19.5130000000	149
19.5430000000	148
19.5730000000	127
19.6030000000	149
19.6330000000	140
19.6630000000	126
19.6930000000	147
19.7230000000	149
19.7530000000	159
19.7830000000	155
19.8130000000	183
19.8430000000	159
19.8730000000	139
19.9030000000	157
19.9330000000	161
19.9630000000	160
19.9930000000	137
20.0230000000	158
20.0530000000	157
20.0830000000	165
20.1130000000	157
20.1430000000	179
20.1730000000	145
20.2030000000	172
20.2330000000	149
20.2630000000	159
20.2930000000	165
20.3230000000	184
20.3530000000	191
20.3830000000	160
20.4130000000	169
20.4430000000	169
20.4730000000	176
20.5030000000	202
20.5330000000	173
20.5630000000	208
20.5930000000	213
20.6230000000	232
20.6530000000	256
20.6830000000	377
20.7130000000	616
20.7430000000	1012
20.7730000000	1453
20.8030000000	2252
20.8330000000	3561
20.8630000000	5975
20.8930000000	8540
20.9230000000	8437
20.9530000000	6097
20.9830000000	3549
21.0130000000	2138
21.0430000000	1319
21.0730000000	751
21.1030000000	472
21.1330000000	311
21.1630000000	239
21.1930000000	203
21.2230000000	191
21.2530000000	190
21.2830000000	192
21.3130000000	179
21.3430000000	175
21.3730000000	163
21.4030000000	174
21.4330000000	160
21.4630000000	160
21.4930000000	174
21.5230000000	156
21.5530000000	167
21.5830000000	168
21.6130000000	155
21.6430000000	155
21.6730000000	158
21.7030000000	164
21.7330000000	157
21.7630000000	168
21.7930000000	152
21.8230000000	171
21.8530000000	166
21.8830000000	164
21.9130000000	161
21.9430000000	144
21.9730000000	146
22.0030000000	151
22.0330000000	139
22.0630000000	156
22.0930000000	159
22.1230000000	159
22.1530000000	169
22.1830000000	159
22.2130000000	142
22.2430000000	147
22.2730000000	155
22.3030000000	172
22.3330000000	173
22.3630000000	160
22.3930000000	166
22.4230000000	171
22.4530000000	173
22.4830000000	151
22.5130000000	157
22.5430000000	156
22.5730000000	161
22.6030000000	184
22.6330000000	161
22.6630000000	163
22.6930000000	169
22.7230000000	145
22.7530000000	171
22.7830000000	152
22.8130000000	161
22.8430000000	160
22.8730000000	138
22.9030000000	171
22.9330000000	154
22.9630000000	170
22.9930000000	167
23.0230000000	170
23.0530000000	172
23.0830000000	163
23.1130000000	179
23.1430000000	163
23.1730000000	162
23.2030000000	165
23.2330000000	165
23.2630000000	165
23.2930000000	189
23.3230000000	181
23.3530000000	176
23.3830000000	174
23.4130000000	157
23.4430000000	161
23.4730000000	166
23.5030000000	153
23.5330000000	160
23.5630000000	174
23.5930000000	136
23.6230000000	165
23.6530000000	192
23.6830000000	183
23.7130000000	171
23.7430000000	204
23.7730000000	169
23.8030000000	188
23.8330000000	186
23.8630000000	127
23.8930000000	160
23.9230000000	174
23.9530000000	159
23.9830000000	175
24.0130000000	191
24.0430000000	158
24.0730000000	149
24.1030000000	168
24.1330000000	185
24.1630000000	163
24.1930000000	180
24.2230000000	159
24.2530000000	179
24.2830000000	166
24.3130000000	175
24.3430000000	161
24.3730000000	176
24.4030000000	188
24.4330000000	168
24.4630000000	156
24.4930000000	197
24.5230000000	167
24.5530000000	184
24.5830000000	175
24.6130000000	141
24.6430000000	167
24.6730000000	158
24.7030000000	173
24.7330000000	158
24.7630000000	184
24.7930000000	175
24.8230000000	168
24.8530000000	175
24.8830000000	179
24.9130000000	168
24.9430000000	176
24.9730000000	185
25.0030000000	194
25.0330000000	157
25.0630000000	168
25.0930000000	162
25.1230000000	175
25.1530000000	189
25.1830000000	184
25.2130000000	189
25.2430000000	155
25.2730000000	159
25.3030000000	178
25.3330000000	177
25.3630000000	168
25.3930000000	189
25.4230000000	170
25.4530000000	209
25.4830000000	219
25.5130000000	216
25.5430000000	276
25.5730000000	273
25.6030000000	253
25.6330000000	224
25.6630000000	201
25.6930000000	190
25.7230000000	164
25.7530000000	172
25.7830000000	159
25.8130000000	146
25.8430000000	157
25.8730000000	162
25.9030000000	164
25.9330000000	142
25.9630000000	158
25.9930000000	164
26.0230000000	152
26.0530000000	170
26.0830000000	180
26.1130000000	181
26.1430000000	150
26.1730000000	151
26.2030000000	167
26.2330000000	173
26.2630000000	161
26.2930000000	159
26.3230000000	154
26.3530000000	156
26.3830000000	170
26.4130000000	167
26.4430000000	174
26.4730000000	164
26.5030000000	167
26.5330000000	150
26.5630000000	149
26.5930000000	145
26.6230000000	142
26.6530000000	177
26.6830000000	181
26.7130000000	155
26.7430000000	149
26.7730000000	163
26.8030000000	171
26.8330000000	170
26.8630000000	167
26.8930000000	142
26.9230000000	154
26.9530000000	159
26.9830000000	137
27.0130000000	147
27.0430000000	171
27.0730000000	167
27.1030000000	147
27.1330000000	142
27.1630000000	144
27.1930000000	155
27.2230000000	168
27.2530000000	136
27.2830000000	144
27.3130000000	156
27.3430000000	150
27.3730000000	152
27.4030000000	157
27.4330000000	157
27.4630000000	130
27.4930000000	142
27.5230000000	143
27.5530000000	135
27.5830000000	165
27.6130000000	170
27.6430000000	141
27.6730000000	140
27.7030000000	139
27.7330000000	146
27.7630000000	149
27.7930000000	135
27.8230000000	141
27.8530000000	151
27.8830000000	192
27.9130000000	162
27.9430000000	172
27.9730000000	157
28.0030000000	154
28.0330000000	157
28.0630000000	158
28.0930000000	170
28.1230000000	153
28.1530000000	155
28.1830000000	131
28.2130000000	159
28.2430000000	149
28.2730000000	158
28.3030000000	143
28.3330000000	169
28.3630000000	149
28.3930000000	162
28.4230000000	148
28.4530000000	137
28.4830000000	187
28.5130000000	133
28.5430000000	144
28.5730000000	140
28.6030000000	151
28.6330000000	156
28.6630000000	159
28.6930000000	129
28.7230000000	147
28.7530000000	130
28.7830000000	151
28.8130000000	153
28.8430000000	148
28.8730000000	146
28.9030000000	126
28.9330000000	143
28.9630000000	139
28.9930000000	157
29.0230000000	141
29.0530000000	133
29.0830000000	129
29.1130000000	137
29.1430000000	134
29.1730000000	124
29.2030000000	127
29.2330000000	147
29.2630000000	143
29.2930000000	140
29.3230000000	135
29.3530000000	128
29.3830000000	132
29.4130000000	151
29.4430000000	142
29.4730000000	146
29.5030000000	136
29.5330000000	132
29.5630000000	118
29.5930000000	129
29.6230000000	132
29.6530000000	120
29.6830000000	118
29.7130000000	140
29.7430000000	150
29.7730000000	138
29.8030000000	145
29.8330000000	139
29.8630000000	142
29.8930000000	154
29.9230000000	150
29.9530000000	152
29.9830000000	128
30.0130000000	141
30.0430000000	155
30.0730000000	139
30.1030000000	148
30.1330000000	137
30.1630000000	125
30.1930000000	135
30.2230000000	123
30.2530000000	132
30.2830000000	150
30.3130000000	134
30.3430000000	126
30.3730000000	154
30.4030000000	131
30.4330000000	142
30.4630000000	126
30.4930000000	120
30.5230000000	133
30.5530000000	139
30.5830000000	132
30.6130000000	137
30.6430000000	119
30.6730000000	144
30.7030000000	123
30.7330000000	134
30.7630000000	124
30.7930000000	124
30.8230000000	139
30.8530000000	133
30.8830000000	139
30.9130000000	143
30.9430000000	129
30.9730000000	128
31.0030000000	135
31.0330000000	127
31.0630000000	125
31.0930000000	116
31.1230000000	132
31.1530000000	121
31.1830000000	145
31.2130000000	120
31.2430000000	142
31.2730000000	130
31.3030000000	147
31.3330000000	133
31.3630000000	117
31.3930000000	134
31.4230000000	131
31.4530000000	143
31.4830000000	138
31.5130000000	133
31.5430000000	137
31.5730000000	133
31.6030000000	124
31.6330000000	132
31.6630000000	132
31.6930000000	123
31.7230000000	149
31.7530000000	126
31.7830000000	102
31.8130000000	126
31.8430000000	148
31.8730000000	134
31.9030000000	156
31.9330000000	122
31.9630000000	119
31.9930000000	125
32.0230000000	125
32.0530000000	131
32.0830000000	128
32.1130000000	122
32.1430000000	112
32.1730000000	125
32.2030000000	145
32.2330000000	148
32.2630000000	130
32.2930000000	131
32.3230000000	136
32.3530000000	122
32.3830000000	125
32.4130000000	113
32.4430000000	140
32.4730000000	130
32.5030000000	144
32.5330000000	144
32.5630000000	135
32.5930000000	105
32.6230000000	111
32.6530000000	128
32.6830000000	129
32.7130000000	152
32.7430000000	158
32.7730000000	145
32.8030000000	136
32.8330000000	152
32.8630000000	173
32.8930000000	150
32.9230000000	164
32.9530000000	205
32.9830000000	257
33.0130000000	356
33.0430000000	616
33.0730000000	1014
33.1030000000	1656
33.1330000000	2500
33.1630000000	3892
33.1930000000	6100
33.2230000000	8401
33.2530000000	8722
33.2830000000	6822
33.3130000000	4524
33.3430000000	2604
33.3730000000	1565
33.4030000000	937
33.4330000000	583
33.4630000000	392
33.4930000000	250
33.5230000000	207
33.5530000000	173
33.5830000000	189
33.6130000000	168
33.6430000000	161
33.6730000000	152
33.7030000000	111
33.7330000000	127
33.7630000000	141
33.7930000000	137
33.8230000000	115
33.8530000000	125
33.8830000000	131
33.9130000000	130
33.9430000000	134
33.9730000000	126
34.0030000000	113
34.0330000000	114
34.0630000000	104
34.0930000000	110
34.1230000000	112
34.1530000000	118
34.1830000000	119
34.2130000000	116
34.2430000000	112
34.2730000000	104
34.3030000000	125
34.3330000000	106
34.3630000000	122
34.3930000000	115
34.4230000000	122
34.4530000000	132
34.4830000000	123
34.5130000000	107
34.5430000000	116
34.5730000000	96
34.6030000000	97
34.6330000000	116
34.6630000000	116
34.6930000000	103
34.7230000000	110
34.7530000000	107
34.7830000000	110
34.8130000000	112
34.8430000000	113
34.8730000000	110
34.9030000000	116
34.9330000000	114
34.9630000000	118
34.9930000000	119
35.0230000000	120
35.0530000000	114
35.0830000000	110
35.1130000000	116
35.1430000000	109
35.1730000000	101
35.2030000000	107
35.2330000000	111
35.2630000000	111
35.2930000000	104
35.3230000000	97
35.3530000000	100
35.3830000000	111
35.4130000000	100
35.4430000000	102
35.4730000000	102
35.5030000000	111
35.5330000000	104
35.5630000000	104
35.5930000000	105
35.6230000000	86
35.6530000000	111
35.6830000000	105
35.7130000000	93
35.7430000000	103
35.7730000000	86
35.8030000000	97
35.8330000000	110
35.8630000000	108
35.8930000000	98
35.9230000000	122
35.9530000000	92
35.9830000000	101
36.0130000000	100
36.0430000000	108
36.0730000000	95
36.1030000000	107
36.1330000000	102
36.1630000000	106
36.1930000000	114
36.2230000000	113
36.2530000000	119
36.2830000000	128
36.3130000000	149
36.3430000000	176
36.3730000000	226
36.4030000000	255
36.4330000000	252
36.4630000000	270
36.4930000000	226
36.5230000000	197
36.5530000000	153
36.5830000000	131
36.6130000000	124
36.6430000000	104
36.6730000000	96
36.7030000000	120
36.7330000000	100
36.7630000000	82
36.7930000000	80
36.8230000000	94
36.8530000000	83
36.8830000000	100
36.9130000000	104
36.9430000000	99
36.9730000000	103
37.0030000000	97
37.0330000000	84
37.0630000000	98
37.0930000000	84
37.1230000000	80
37.1530000000	86
37.1830000000	87
37.2130000000	85
37.2430000000	100
37.2730000000	99
37.3030000000	96
37.3330000000	100
37.3630000000	100
37.3930000000	94
37.4230000000	105
37.4530000000	112
37.4830000000	100
37.5130000000	107
37.5430000000	101
37.5730000000	95
37.6030000000	98
37.6330000000	99
37.6630000000	99
37.6930000000	95
37.7230000000	99
37.7530000000	110
37.7830000000	96
37.8130000000	94
37.8430000000	102
37.8730000000	87
37.9030000000	103
37.9330000000	101
37.9630000000	93
37.9930000000	89
38.0230000000	88
38.0530000000	82
38.0830000000	98
38.1130000000	101
38.1430000000	88
38.1730000000	94
38.2030000000	104
38.2330000000	78
38.2630000000	99
38.2930000000	97
38.3230000000	88
38.3530000000	98
38.3830000000	107
38.4130000000	98
38.4430000000	104
38.4730000000	111
38.5030000000	96
38.5330000000	95
38.5630000000	101
38.5930000000	97
38.6230000000	91
38.6530000000	98
38.6830000000	97
38.7130000000	99
38.7430000000	95
38.7730000000	106
38.8030000000	116
38.8330000000	102
38.8630000000	98
38.8930000000	89
38.9230000000	90
38.9530000000	103
38.9830000000	105
39.0130000000	108
39.0430000000	98
39.0730000000	83
39.1030000000	107
39.1330000000	112
39.1630000000	98
39.1930000000	83
39.2230000000	98
39.2530000000	101
39.2830000000	93
39.3130000000	98
39.3430000000	101
39.3730000000	96
39.4030000000	102
39.4330000000	106
39.4630000000	99
39.4930000000	87
39.5230000000	90
39.5530000000	86
39.5830000000	83
39.6130000000	103
39.6430000000	82
39.6730000000	87
39.7030000000	82
39.7330000000	96
39.7630000000	88
39.7930000000	89
39.8230000000	84
39.8530000000	82
39.8830000000	92
39.9130000000	112
39.9430000000	93
39.9730000000	98
40.0030000000	98
40.0330000000	79
40.0630000000	87
40.0930000000	95
40.1230000000	79
40.1530000000	100
40.1830000000	82
40.2130000000	91
40.2430000000	105
40.2730000000	92
40.3030000000	81
40.3330000000	83
40.3630000000	95
40.3930000000	99
40.4230000000	79
40.4530000000	95
40.4830000000	105
40.5130000000	96
40.5430000000	97
40.5730000000	104
40.6030000000	94
40.6330000000	84
40.6630000000	123
40.6930000000	108
40.7230000000	104
40.7530000000	109
40.7830000000	138
40.8130000000	154
40.8430000000	209
40.8730000000	238
40.9030000000	320
40.9330000000	382
40.9630000000	467
40.9930000000	473
41.0230000000	368
41.0530000000	291
41.0830000000	249
41.1130000000	165
41.1430000000	163
41.1730000000	129
41.2030000000	97
41.2330000000	111
41.2630000000	108
41.2930000000	82
41.3230000000	99
41.3530000000	126
41.3830000000	100
41.4130000000	98
41.4430000000	98
41.4730000000	103
41.5030000000	104
41.5330000000	91
41.5630000000	99
41.5930000000	107
41.6230000000	98
41.6530000000	94
41.6830000000	83
41.7130000000	80
41.7430000000	86
41.7730000000	105
41.8030000000	95
41.8330000000	99
41.8630000000	94
41.8930000000	95
41.9230000000	89
41.9530000000	92
41.9830000000	108
42.0130000000	93
42.0430000000	82
42.0730000000	81
42.1030000000	92
42.1330000000	92
42.1630000000	89
42.1930000000	105
42.2230000000	135
42.2530000000	144
42.2830000000	160
42.3130000000	197
42.3430000000	241
42.3730000000	266
42.4030000000	267
42.4330000000	257
42.4630000000	244
42.4930000000	252
42.5230000000	252
42.5530000000	218
42.5830000000	204
42.6130000000	186
42.6430000000	148
42.6730000000	130
42.7030000000	112
42.7330000000	101
42.7630000000	104
42.7930000000	97
42.8230000000	77
42.8530000000	104
42.8830000000	107
42.9130000000	90
42.9430000000	87
42.9730000000	91
43.0030000000	64
43.0330000000	95
43.0630000000	90
43.0930000000	100
43.1230000000	91
43.1530000000	60
43.1830000000	84
43.2130000000	82
43.2430000000	105
43.2730000000	94
43.3030000000	95
43.3330000000	106
43.3630000000	91
43.3930000000	78
43.4230000000	81
43.4530000000	103
43.4830000000	100
43.5130000000	93
43.5430000000	81
43.5730000000	80
43.6030000000	93
43.6330000000	96
43.6630000000	107
43.6930000000	83
43.7230000000	83
43.7530000000	70
43.7830000000	107
43.8130000000	98
43.8430000000	96
43.8730000000	101
43.9030000000	79
43.9330000000	71
43.9630000000	84
43.9930000000	82
44.0230000000	80
44.0530000000	102
44.0830000000	98
44.1130000000	85
44.1430000000	85
44.1730000000	95
44.2030000000	94
44.2330000000	72
44.2630000000	83
44.2930000000	88
44.3230000000	84
44.3530000000	95
44.3830000000	77
44.4130000000	72
44.4430000000	84
44.4730000000	78
44.5030000000	101
44.5330000000	78
44.5630000000	85
44.5930000000	78
44.6230000000	71
44.6530000000	75
44.6830000000	86
44.7130000000	88
44.7430000000	51
44.7730000000	90
44.8030000000	69
44.8330000000	94
44.8630000000	96
44.8930000000	80
44.9230000000	91
44.9530000000	86
44.9830000000	90
45.0130000000	94
45.0430000000	73
45.0730000000	103
45.1030000000	76
45.1330000000	81
45.1630000000	71
45.1930000000	77
45.2230000000	72
45.2530000000	64
45.2830000000	82
45.3130000000	81
45.3430000000	87
45.3730000000	86
45.4030000000	79
45.4330000000	78
45.4630000000	83
45.4930000000	93
45.5230000000	87
45.5530000000	70
45.5830000000	70
45.6130000000	76
45.6430000000	80
45.6730000000	88
45.7030000000	79
45.7330000000	78
45.7630000000	88
45.7930000000	80
45.8230000000	87
45.8530000000	70
45.8830000000	82
45.9130000000	94
45.9430000000	78
45.9730000000	64
46.0030000000	81
46.0330000000	85
46.0630000000	87
46.0930000000	57
46.1230000000	84
46.1530000000	97
46.1830000000	75
46.2130000000	83
46.2430000000	91
46.2730000000	77
46.3030000000	108
46.3330000000	113
46.3630000000	113
46.3930000000	121
46.4230000000	114
46.4530000000	117
46.4830000000	111
46.5130000000	106
46.5430000000	94
46.5730000000	81
46.6030000000	79
46.6330000000	84
46.6630000000	81
46.6930000000	79
46.7230000000	89
46.7530000000	71
46.7830000000	70
46.8130000000	85
46.8430000000	76
46.8730000000	74
46.9030000000	87
46.9330000000	72
46.9630000000	86
46.9930000000	87
47.0230000000	84
47.0530000000	83
47.0830000000	72
47.1130000000	66
47.1430000000	65
47.1730000000	65
47.2030000000	98
47.2330000000	78
47.2630000000	80
47.2930000000	78
47.3230000000	68
47.3530000000	85
47.3830000000	69
47.4130000000	67
47.4430000000	81
47.4730000000	78
47.5030000000	83
47.5330000000	53
47.5630000000	76
47.5930000000	72
47.6230000000	70
47.6530000000	74
47.6830000000	80
47.7130000000	89
47.7430000000	75
47.7730000000	57
47.8030000000	73
47.8330000000	73
47.8630000000	79
47.8930000000	68
47.9230000000	73
47.9530000000	68
47.9830000000	70
48.0130000000	85
48.0430000000	65
48.0730000000	75
48.1030000000	60
48.1330000000	64
48.1630000000	72
48.1930000000	74
48.2230000000	57
48.2530000000	75
48.2830000000	81
48.3130000000	80
48.3430000000	70
48.3730000000	71
48.4030000000	65
48.4330000000	63
48.4630000000	67
48.4930000000	86
48.5230000000	65
48.5530000000	66
48.5830000000	69
48.6130000000	73
48.6430000000	72
48.6730000000	64
48.7030000000	65
48.7330000000	73
48.7630000000	77
48.7930000000	72
48.8230000000	63
48.8530000000	68
48.8830000000	60
48.9130000000	56
48.9430000000	57
48.9730000000	65
49.0030000000	82
49.0330000000	78
49.0630000000	66
49.0930000000	81
49.1230000000	68
49.1530000000	54
49.1830000000	66
49.2130000000	62
49.2430000000	67
49.2730000000	71
49.3030000000	74
49.3330000000	80
49.3630000000	58
49.3930000000	71
49.4230000000	70
49.4530000000	71
49.4830000000	81
49.5130000000	77
49.5430000000	65
49.5730000000	72
49.6030000000	74
49.6330000000	62
49.6630000000	66
49.6930000000	69
49.7230000000	66
49.7530000000	78
49.7830000000	61
49.8130000000	68
49.8430000000	72
49.8730000000	76
49.9030000000	74
49.9330000000	90
49.9630000000	79
49.9930000000	67
50.0230000000	71
50.0530000000	64
50.0830000000	73
50.1130000000	64
50.1430000000	77
50.1730000000	67
50.2030000000	79
50.2330000000	77
50.2630000000	92
50.2930000000	106
50.3230000000	88
50.3530000000	87
50.3830000000	82
50.4130000000	82
50.4430000000	73
50.4730000000	70
50.5030000000	72
50.5330000000	70
50.5630000000	57
50.5930000000	62
50.6230000000	66
50.6530000000	69
50.6830000000	66
50.7130000000	54
50.7430000000	69
50.7730000000	65
50.8030000000	61
50.8330000000	69
50.8630000000	63
50.8930000000	61
50.9230000000	65
50.9530000000	69
50.9830000000	62
51.0130000000	64
51.0430000000	64
51.0730000000	53
51.1030000000	60
51.1330000000	68
51.1630000000	51
51.1930000000	52
51.2230000000	49
51.2530000000	56
51.2830000000	58
51.3130000000	69
51.3430000000	56
51.3730000000	51
51.4030000000	62
51.4330000000	58
51.4630000000	67
51.4930000000	61
51.5230000000	61
51.5530000000	54
51.5830000000	58
51.6130000000	65
51.6430000000	66
51.6730000000	51
51.7030000000	52
51.7330000000	63
51.7630000000	62
51.7930000000	59
51.8230000000	64
51.8530000000	66
51.8830000000	63
51.9130000000	56
51.9430000000	63
51.9730000000	58
52.0030000000	66
52.0330000000	73
52.0630000000	68
52.0930000000	71
52.1230000000	60
52.1530000000	64
52.1830000000	54
52.2130000000	61
52.2430000000	67
52.2730000000	55
52.3030000000	60
52.3330000000	58
52.3630000000	59
52.3930000000	65
52.4230000000	77
52.4530000000	80
52.4830000000	72
52.5130000000	86
52.5430000000	87
52.5730000000	82
52.6030000000	76
52.6330000000	82
52.6630000000	67
52.6930000000	59
52.7230000000	50
52.7530000000	54
52.7830000000	55
52.8130000000	55
52.8430000000	67
52.8730000000	69
52.9030000000	71
52.9330000000	60
52.9630000000	55
52.9930000000	59
53.0230000000	61
53.0530000000	62
53.0830000000	46
53.1130000000	61
53.1430000000	57
53.1730000000	40
53.2030000000	63
53.2330000000	67
53.2630000000	67
53.2930000000	56
53.3230000000	62
53.3530000000	70
53.3830000000	64
53.4130000000	56
53.4430000000	63
53.4730000000	55
53.5030000000	67
53.5330000000	49
53.5630000000	49
53.5930000000	56
53.6230000000	67
53.6530000000	58
53.6830000000	59
53.7130000000	64
53.7430000000	73
53.7730000000	65
53.8030000000	65
53.8330000000	61
53.8630000000	53
53.8930000000	47
53.9230000000	53
53.9530000000	59
53.9830000000	51
54.0130000000	46
54.0430000000	52
54.0730000000	61
54.1030000000	62
54.1330000000	56
54.1630000000	55
54.1930000000	51
54.2230000000	61
54.2530000000	58
54.2830000000	48
54.3130000000	60
54.3430000000	60
54.3730000000	36
54.4030000000	71
54.4330000000	52
54.4630000000	61
54.4930000000	59
54.5230000000	58
54.5530000000	68
54.5830000000	66
54.6130000000	55
54.6430000000	49
54.6730000000	69
54.7030000000	59
54.7330000000	45
54.7630000000	44
54.7930000000	64
54.8230000000	52
54.8530000000	60
54.8830000000	58
54.9130000000	61
54.9430000000	51
54.9730000000	58
55.0030000000	48
55.0330000000	52
55.0630000000	44
55.0930000000	46
55.1230000000	60
55.1530000000	48
55.1830000000	47
55.2130000000	53
55.2430000000	52
55.2730000000	51
55.3030000000	56
55.3330000000	60
55.3630000000	67
55.3930000000	51
55.4230000000	50
55.4530000000	52
55.4830000000	54
55.5130000000	45
55.5430000000	52
55.5730000000	57
55.6030000000	60
55.6330000000	51
55.6630000000	56
55.6930000000	54
55.7230000000	53
55.7530000000	65
55.7830000000	51
55.8130000000	63
55.8430000000	58
55.8730000000	53
55.9030000000	59
55.9330000000	61
55.9630000000	63
55.9930000000	52
56.0230000000	51
56.0530000000	55
56.0830000000	55
56.1130000000	50
56.1430000000	50
56.1730000000	53
56.2030000000	61
56.2330000000	52
56.2630000000	51
56.2930000000	44
56.3230000000	51
56.3530000000	52
56.3830000000	54
56.4130000000	53
56.4430000000	45
56.4730000000	62
56.5030000000	65
56.5330000000	48
56.5630000000	54
56.5930000000	51
56.6230000000	50
56.6530000000	55
56.6830000000	54
56.7130000000	64
56.7430000000	49
56.7730000000	47
56.8030000000	61
56.8330000000	51
56.8630000000	54
56.8930000000	61
56.9230000000	65
56.9530000000	43
56.9830000000	41
57.0130000000	51
57.0430000000	59
57.0730000000	58
57.1030000000	62
57.1330000000	61
57.1630000000	81
57.1930000000	88
57.2230000000	68
57.2530000000	72
57.2830000000	75
57.3130000000	70
57.3430000000	67
57.3730000000	66
57.4030000000	54
57.4330000000	55
57.4630000000	44
57.4930000000	55
57.5230000000	57
57.5530000000	50
57.5830000000	53
57.6130000000	55
57.6430000000	55
57.6730000000	53
57.7030000000	61
57.7330000000	54
57.7630000000	52
57.7930000000	55
57.8230000000	46
57.8530000000	57
57.8830000000	56
57.9130000000	44
57.9430000000	52
57.9730000000	57
58.0030000000	49
58.0330000000	52
58.0630000000	57
58.0930000000	53
58.1230000000	51
58.1530000000	64
58.1830000000	43
58.2130000000	48
58.2430000000	37
58.2730000000	46
58.3030000000	53
58.3330000000	61
58.3630000000	56
58.3930000000	58
58.4230000000	42
58.4530000000	47
58.4830000000	49
58.5130000000	56
58.5430000000	52
58.5730000000	49
58.6030000000	56
58.6330000000	48
58.6630000000	56
58.6930000000	55
58.7230000000	39
58.7530000000	56
58.7830000000	50
58.8130000000	44
58.8430000000	50
58.8730000000	56
58.9030000000	57
58.9330000000	58
58.9630000000	46
58.9930000000	52
59.0230000000	50
59.0530000000	56
59.0830000000	49
59.1130000000	54
59.1430000000	48
59.1730000000	51
59.2030000000	54
59.2330000000	54
59.2630000000	57
59.2930000000	50
59.3230000000	39
59.3530000000	62
59.3830000000	56
59.4130000000	53
59.4430000000	57
59.4730000000	38
59.5030000000	51
59.5330000000	50
59.5630000000	38
59.5930000000	60
59.6230000000	57
59.6530000000	42
59.6830000000	49
59.7130000000	58
59.7430000000	55
59.7730000000	51
59.8030000000	55
59.8330000000	41
59.8630000000	47
59.8930000000	46
59.9230000000	58
59.9530000000	51
59.9830000000	48
60.0130000000	57
60.0430000000	44
60.0730000000	47
60.1030000000	46
60.1330000000	63
60.1630000000	57
60.1930000000	53
60.2230000000	37
60.2530000000	49
60.2830000000	59
60.3130000000	67
60.3430000000	68
60.3730000000	49
60.4030000000	69
60.4330000000	59
60.4630000000	68
60.4930000000	61
60.5230000000	67
60.5530000000	68
60.5830000000	58
60.6130000000	76
60.6430000000	57
60.6730000000	53
60.7030000000	56
60.7330000000	51
60.7630000000	50
60.7930000000	51
60.8230000000	46
60.8530000000	44
60.8830000000	41
60.9130000000	55
60.9430000000	55
60.9730000000	46
61.0030000000	51
61.0330000000	42
61.0630000000	51
61.0930000000	50
61.1230000000	54
61.1530000000	55
61.1830000000	48
61.2130000000	49
61.2430000000	56
61.2730000000	47
61.3030000000	41
61.3330000000	60
61.3630000000	43
61.3930000000	47
61.4230000000	43
61.4530000000	53
61.4830000000	44
61.5130000000	49
61.5430000000	51
61.5730000000	50
61.6030000000	31
61.6330000000	47
61.6630000000	58
61.6930000000	63
61.7230000000	50
61.7530000000	51
61.7830000000	55
61.8130000000	45
61.8430000000	45
61.8730000000	50
61.9030000000	37
61.9330000000	42
61.9630000000	39
61.9930000000	47
62.0230000000	48
62.0530000000	42
62.0830000000	40
62.1130000000	36
62.1430000000	42
62.1730000000	46
62.2030000000	37
62.2330000000	51
62.2630000000	44
62.2930000000	63
62.3230000000	63
62.3530000000	43
62.3830000000	52
62.4130000000	47
62.4430000000	40
62.4730000000	38
62.5030000000	50
62.5330000000	52
62.5630000000	57
62.5930000000	41
62.6230000000	46
62.6530000000	50
62.6830000000	50
62.7130000000	49
62.7430000000	36
62.7730000000	43
62.8030000000	44
62.8330000000	56
62.8630000000	49
62.8930000000	49
62.9230000000	59
62.9530000000	53
62.9830000000	40
63.0130000000	48
63.0430000000	46
63.0730000000	46
63.1030000000	47
63.1330000000	48
63.1630000000	50
63.1930000000	45
63.2230000000	52
63.2530000000	47
63.2830000000	42
63.3130000000	55
63.3430000000	70
63.3730000000	67
63.4030000000	52
63.4330000000	59
63.4630000000	67
63.4930000000	86
63.5230000000	95
63.5530000000	84
63.5830000000	84
63.6130000000	94
63.6430000000	90
63.6730000000	96
63.7030000000	77
63.7330000000	76
63.7630000000	79
63.7930000000	59
63.8230000000	53
63.8530000000	53
63.8830000000	48
63.9130000000	48
63.9430000000	54
63.9730000000	53
64.0030000000	56
64.0330000000	44
64.0630000000	42
64.0930000000	48
64.1230000000	42
64.1530000000	54
64.1830000000	45
64.2130000000	47
64.2430000000	46
64.2730000000	45
64.3030000000	53
64.3330000000	62
64.3630000000	60
64.3930000000	49
64.4230000000	53
64.4530000000	49
64.4830000000	45
64.5130000000	35
64.5430000000	52
64.5730000000	59
64.6030000000	51
64.6330000000	53
64.6630000000	40
64.6930000000	46
64.7230000000	51
64.7530000000	55
64.7830000000	45
64.8130000000	45
64.8430000000	51
64.8730000000	42
64.9030000000	54
64.9330000000	46
64.9630000000	57
64.9930000000	41
65.0230000000	38
65.0530000000	47
65.0830000000	54
65.1130000000	51
65.1430000000	51
65.1730000000	46
65.2030000000	45
65.2330000000	49
65.2630000000	49
65.2930000000	51
65.3230000000	43
65.3530000000	52
65.3830000000	53
65.4130000000	39
65.4430000000	42
65.4730000000	50
65.5030000000	51
65.5330000000	34
65.5630000000	43
65.5930000000	39
65.6230000000	43
65.6530000000	45
65.6830000000	47
65.7130000000	49
65.7430000000	43
65.7730000000	45
65.8030000000	40
65.8330000000	61
65.8630000000	57
65.8930000000	46
65.9230000000	52
65.9530000000	47
65.9830000000	36
66.0130000000	37
66.0430000000	43
66.0730000000	54
66.1030000000	58
66.1330000000	40
66.1630000000	34
66.1930000000	50
66.2230000000	40
66.2530000000	65
66.2830000000	45
66.3130000000	52
66.3430000000	70
66.3730000000	53
66.4030000000	50
66.4330000000	45
66.4630000000	44
66.4930000000	48
66.5230000000	46
66.5530000000	41
66.5830000000	42
66.6130000000	46
66.6430000000	45
66.6730000000	40
66.7030000000	43
66.7330000000	43
66.7630000000	44
66.7930000000	48
66.8230000000	60
66.8530000000	44
66.8830000000	51
66.9130000000	49
66.9430000000	58
66.9730000000	66
67.0030000000	52
67.0330000000	46
67.0630000000	48
67.0930000000	43
67.1230000000	48
67.1530000000	52
67.1830000000	48
67.2130000000	43
67.2430000000	43
67.2730000000	54
67.3030000000	55
67.3330000000	47
67.3630000000	38
67.3930000000	37
67.4230000000	44
67.4530000000	36
67.4830000000	51
67.5130000000	42
67.5430000000	34
67.5730000000	44
67.6030000000	49
67.6330000000	38
67.6630000000	51
67.6930000000	47
67.7230000000	38
67.7530000000	40
67.7830000000	51
67.8130000000	36
67.8430000000	38
67.8730000000	62
67.9030000000	50
67.9330000000	41
67.9630000000	45
67.9930000000	63
68.0230000000	42
68.0530000000	36
68.0830000000	53
68.1130000000	37
68.1430000000	40
68.1730000000	39
68.2030000000	43
68.2330000000	52
68.2630000000	40
68.2930000000	31
68.3230000000	41
68.3530000000	57
68.3830000000	47
68.4130000000	45
68.4430000000	38
68.4730000000	40
68.5030000000	47
68.5330000000	46
68.5630000000	53
68.5930000000	41
68.6230000000	52
68.6530000000	50
68.6830000000	53
68.7130000000	66
68.7430000000	60
68.7730000000	60
68.8030000000	52
68.8330000000	44
68.8630000000	52
68.8930000000	48
68.9230000000	49
68.9530000000	40
68.9830000000	47
69.0130000000	39
69.0430000000	50
69.0730000000	52
69.1030000000	47
69.1330000000	49
69.1630000000	46
69.1930000000	60
69.2230000000	42
69.2530000000	51
69.2830000000	36
69.3130000000	39
69.3430000000	47
69.3730000000	46
69.4030000000	45
69.4330000000	44
69.4630000000	43
69.4930000000	41
69.5230000000	45
69.5530000000	48
69.5830000000	47
69.6130000000	43
69.6430000000	49
69.6730000000	44
69.7030000000	41
69.7330000000	43
69.7630000000	36
69.7930000000	37
69.8230000000	40
69.8530000000	46
69.8830000000	39
69.9130000000	58
69.9430000000	45
69.9730000000	39
70.0030000000	36
70.0330000000	50
70.0630000000	44
70.0930000000	41
70.1230000000	51
70.1530000000	45
70.1830000000	43
70.2130000000	60
70.2430000000	45
70.2730000000	45
70.3030000000	52
70.3330000000	28
70.3630000000	37
70.3930000000	53
70.4230000000	49
70.4530000000	53
70.4830000000	54
70.5130000000	34
70.5430000000	46
70.5730000000	57
70.6030000000	38
70.6330000000	43
70.6630000000	46
70.6930000000	54
70.7230000000	43
70.7530000000	41
70.7830000000	45
70.8130000000	43
70.8430000000	47
70.8730000000	44
70.9030000000	27
70.9330000000	44
70.9630000000	48
70.9930000000	51
71.0230000000	47
71.0530000000	49
71.0830000000	44
71.1130000000	53
71.1430000000	46
71.1730000000	44
71.2030000000	53
71.2330000000	41
71.2630000000	39
71.2930000000	35
71.3230000000	42
71.3530000000	49
71.3830000000	52
71.4130000000	49
71.4430000000	36
71.4730000000	41
71.5030000000	42
71.5330000000	42
71.5630000000	43
71.5930000000	38
71.6230000000	46
71.6530000000	31
71.6830000000	42
71.7130000000	42
71.7430000000	46
71.7730000000	40
71.8030000000	45
71.8330000000	59
71.8630000000	51
71.8930000000	46
71.9230000000	46
71.9530000000	43
71.9830000000	34
72.0130000000	40
72.0430000000	42
72.0730000000	51
72.1030000000	47
72.1330000000	42
72.1630000000	50
72.1930000000	45
72.2230000000	41
72.2530000000	36
72.2830000000	47
72.3130000000	44
72.3430000000	36
72.3730000000	53
72.4030000000	40
72.4330000000	43
72.4630000000	52
72.4930000000	49
72.5230000000	58
72.5530000000	53
72.5830000000	82
72.6130000000	82
72.6430000000	68
72.6730000000	50
72.7030000000	50
72.7330000000	58
72.7630000000	61
72.7930000000	53
72.8230000000	54
72.8530000000	45
72.8830000000	58
72.9130000000	44
72.9430000000	45
72.9730000000	45
73.0030000000	45
73.0330000000	59
73.0630000000	48
73.0930000000	53
73.1230000000	50
73.1530000000	58
73.1830000000	43
73.2130000000	53
73.2430000000	39
73.2730000000	36
73.3030000000	47
73.3330000000	39
73.3630000000	36
73.3930000000	40
73.4230000000	43
73.4530000000	45
73.4830000000	59
73.5130000000	60
73.5430000000	49
73.5730000000	45
73.6030000000	46
73.6330000000	46
73.6630000000	44
73.6930000000	45
73.7230000000	42
73.7530000000	42
73.7830000000	57
73.8130000000	40
73.8430000000	33
73.8730000000	48
73.9030000000	51
73.9330000000	40
73.9630000000	47
73.9930000000	41
74.0230000000	41
74.0530000000	41
74.0830000000	35
74.1130000000	35
74.1430000000	46
74.1730000000	38
74.2030000000	34
74.2330000000	46
74.2630000000	57
74.2930000000	46
74.3230000000	45
74.3530000000	37
74.3830000000	51
74.4130000000	46
74.4430000000	54
74.4730000000	40
74.5030000000	50
74.5330000000	46
74.5630000000	35
74.5930000000	34
74.6230000000	42
74.6530000000	53
74.6830000000	41
74.7130000000	33
74.7430000000	42
74.7730000000	45
74.8030000000	41
74.8330000000	40
74.8630000000	46
74.8930000000	45
74.9230000000	54
74.9530000000	46
74.9830000000	46
75.0130000000	49
75.0430000000	48
75.0730000000	52
75.1030000000	39
75.1330000000	52
75.1630000000	56
75.1930000000	46
75.2230000000	49
75.2530000000	54
75.2830000000	51
75.3130000000	48
75.3430000000	50
75.3730000000	55
75.4030000000	61
75.4330000000	65
75.4630000000	68
75.4930000000	85
75.5230000000	120
75.5530000000	139
75.5830000000	191
75.6130000000	257
75.6430000000	259
75.6730000000	301
75.7030000000	310
75.7330000000	272
75.7630000000	221
75.7930000000	195
75.8230000000	199
75.8530000000	190
75.8830000000	163
75.9130000000	153
75.9430000000	114
75.9730000000	89
76.0030000000	82
76.0330000000	69
76.0630000000	62
76.0930000000	59
76.1230000000	54
76.1530000000	53
76.1830000000	41
76.2130000000	49
76.2430000000	46
76.2730000000	36
76.3030000000	51
76.3330000000	44
76.3630000000	48
76.3930000000	44
76.4230000000	56
76.4530000000	31
76.4830000000	40
76.5130000000	58
76.5430000000	43
76.5730000000	46
76.6030000000	35
76.6330000000	46
76.6630000000	54
76.6930000000	42
76.7230000000	42
76.7530000000	39
76.7830000000	46
76.8130000000	50
76.8430000000	45
76.8730000000	47
76.9030000000	49
76.9330000000	48
76.9630000000	45
76.9930000000	42
77.0230000000	49
77.0530000000	46
77.0830000000	37
77.1130000000	46
77.1430000000	47
77.1730000000	41
77.2030000000	49
77.2330000000	36
77.2630000000	36
77.2930000000	44
77.3230000000	35
77.3530000000	43
77.3830000000	51
77.4130000000	33
77.4430000000	35
77.4730000000	47
77.5030000000	39
77.5330000000	47
77.5630000000	33
77.5930000000	41
77.6230000000	45
77.6530000000	50
77.6830000000	35
77.7130000000	34
77.7430000000	40
77.7730000000	41
77.8030000000	35
77.8330000000	41
77.8630000000	41
77.8930000000	47
77.9230000000	39
77.9530000000	38
77.9830000000	36
78.0130000000	30
78.0430000000	45
78.0730000000	58
78.1030000000	38
78.1330000000	35
78.1630000000	41
78.1930000000	33
78.2230000000	27
78.2530000000	42
78.2830000000	32
78.3130000000	30
78.3430000000	52
78.3730000000	50
78.4030000000	43
78.4330000000	37
78.4630000000	43
78.4930000000	40
78.5230000000	53
78.5530000000	45
78.5830000000	48
78.6130000000	37
78.6430000000	36
78.6730000000	36
78.7030000000	41
78.7330000000	35
78.7630000000	34
78.7930000000	42
78.8230000000	42
78.8530000000	31
78.8830000000	35
78.9130000000	47
78.9430000000	41
78.9730000000	40
79.0030000000	34
79.0330000000	30
79.0630000000	49
79.0930000000	46
79.1230000000	43
79.1530000000	44
79.1830000000	38
79.2130000000	51
79.2430000000	45
79.2730000000	44
79.3030000000	39
79.3330000000	40
79.3630000000	47
79.3930000000	34
79.4230000000	47
79.4530000000	48
79.4830000000	32
79.5130000000	32
79.5430000000	37
79.5730000000	44
79.6030000000	45
79.6330000000	33
79.6630000000	42
79.6930000000	29
79.7230000000	46
79.7530000000	34
79.7830000000	35
79.8130000000	32
79.8430000000	37
79.8730000000	40
79.9030000000	43
79.9330000000	39
79.9630000000	48
79.9930000000	40
80.0230000000	40
80.0530000000	38
80.0830000000	30
80.1130000000	37
80.1430000000	45
80.1730000000	43
80.2030000000	42
80.2330000000	37
80.2630000000	43
80.2930000000	48
80.3230000000	52
80.3530000000	44
80.3830000000	46
80.4130000000	41
80.4430000000	37
80.4730000000	44
80.5030000000	33
80.5330000000	28
80.5630000000	37
80.5930000000	38
80.6230000000	40
80.6530000000	48
80.6830000000	34
80.7130000000	33
80.7430000000	39
80.7730000000	37
80.8030000000	33
80.8330000000	36
80.8630000000	42
80.8930000000	37
80.9230000000	36
80.9530000000	36
80.9830000000	41
81.0130000000	30
81.0430000000	41
81.0730000000	42
81.1030000000	48
81.1330000000	34
81.1630000000	40
81.1930000000	38
81.2230000000	49
81.2530000000	62
81.2830000000	45
81.3130000000	44
81.3430000000	47
81.3730000000	43
81.4030000000	48
81.4330000000	43
81.4630000000	42
81.4930000000	37
81.5230000000	35
81.5530000000	39
81.5830000000	36
81.6130000000	38
81.6430000000	35
81.6730000000	44
81.7030000000	31
81.7330000000	37
81.7630000000	44
81.7930000000	34
81.8230000000	50
81.8530000000	46
81.8830000000	41
81.9130000000	45
81.9430000000	38
81.9730000000	43
82.0030000000	43
82.0330000000	38
82.0630000000	39
82.0930000000	33
82.1230000000	38
82.1530000000	44
82.1830000000	42
82.2130000000	31
82.2430000000	36
82.2730000000	42
82.3030000000	52
82.3330000000	54
82.3630000000	46
82.3930000000	43
82.4230000000	41
82.4530000000	36
82.4830000000	44
82.5130000000	40
82.5430000000	35
82.5730000000	39
82.6030000000	37
82.6330000000	30
82.6630000000	39
82.6930000000	38
82.7230000000	42
82.7530000000	44
82.7830000000	38
82.8130000000	40
82.8430000000	35
82.8730000000	36
82.9030000000	37
82.9330000000	36
82.9630000000	31
82.9930000000	36
83.0230000000	37
83.0530000000	37
83.0830000000	47
83.1130000000	41
83.1430000000	38
83.1730000000	49
83.2030000000	40
83.2330000000	34
83.2630000000	43
83.2930000000	35
83.3230000000	35
83.3530000000	36
83.3830000000	40
83.4130000000	41
83.4430000000	50
83.4730000000	35
83.5030000000	35
83.5330000000	43
83.5630000000	46
83.5930000000	33
83.6230000000	39
83.6530000000	37
83.6830000000	45
83.7130000000	36
83.7430000000	29
83.7730000000	41
83.8030000000	47
83.8330000000	31
83.8630000000	35
83.8930000000	43
83.9230000000	33
83.9530000000	42
83.9830000000	48
84.0130000000	38
84.0430000000	41
84.0730000000	36
84.1030000000	33
84.1330000000	37
84.1630000000	41
84.1930000000	41
84.2230000000	40
84.2530000000	35
84.2830000000	37
84.3130000000	39
84.3430000000	25
84.3730000000	32
84.4030000000	38
84.4330000000	42
84.4630000000	42
84.4930000000	40
84.5230000000	32
84.5530000000	43
84.5830000000	41
84.6130000000	50
84.6430000000	41
84.6730000000	50
84.7030000000	40
84.7330000000	36
84.7630000000	40
84.7930000000	41
84.8230000000	32
84.8530000000	37
84.8830000000	39
84.9130000000	35
84.9430000000	42
84.9730000000	40
85.0030000000	38
85.0330000000	28
85.0630000000	46
85.0930000000	29
85.1230000000	35
85.1530000000	55
85.1830000000	48
85.2130000000	40
85.2430000000	34
85.2730000000	41
85.3030000000	29
85.3330000000	38
85.3630000000	45
85.3930000000	44
85.4230000000	32
85.4530000000	31
85.4830000000	32
85.5130000000	41
85.5430000000	48
85.5730000000	34
85.6030000000	38
85.6330000000	40
85.6630000000	43
85.6930000000	31
85.7230000000	35
85.7530000000	37
85.7830000000	45
85.8130000000	45
85.8430000000	40
85.8730000000	28
85.9030000000	40
85.9330000000	33
85.9630000000	33
85.9930000000	44
86.0230000000	41
86.0530000000	49
86.0830000000	29
86.1130000000	28
86.1430000000	38
86.1730000000	37
86.2030000000	48
86.2330000000	36
86.2630000000	38
86.2930000000	51
86.3230000000	41
86.3530000000	31
86.3830000000	38
86.4130000000	49
86.4430000000	44
86.4730000000	47
86.5030000000	37
86.5330000000	38
86.5630000000	42
86.5930000000	39
86.6230000000	38
86.6530000000	38
86.6830000000	40
86.7130000000	35
86.7430000000	27
86.7730000000	38
86.8030000000	49
86.8330000000	46
86.8630000000	41
86.8930000000	40
86.9230000000	48
86.9530000000	49
86.9830000000	39
87.0130000000	42
87.0430000000	45
87.0730000000	41
87.1030000000	35
87.1330000000	39
87.1630000000	41
87.1930000000	34
87.2230000000	42
87.2530000000	54
87.2830000000	51
87.3130000000	41
87.3430000000	42
87.3730000000	48
87.4030000000	37
87.4330000000	41
87.4630000000	46
87.4930000000	40
87.5230000000	38
87.5530000000	39
87.5830000000	38
87.6130000000	41
87.6430000000	36
87.6730000000	36
87.7030000000	35
87.7330000000	51
87.7630000000	42
87.7930000000	37
87.8230000000	40
87.8530000000	42
87.8830000000	33
87.9130000000	37
87.9430000000	49
87.9730000000	36
88.0030000000	37
88.0330000000	46
88.0630000000	36
88.0930000000	36
88.1230000000	40
88.1530000000	38
88.1830000000	40
88.2130000000	34
88.2430000000	41
88.2730000000	58
88.3030000000	38
88.3330000000	32
88.3630000000	49
88.3930000000	28
88.4230000000	44
88.4530000000	34
88.4830000000	31
88.5130000000	39
88.5430000000	44
88.5730000000	51
88.6030000000	40
88.6330000000	58
88.6630000000	58
88.6930000000	44
88.7230000000	57
88.7530000000	47
88.7830000000	68
88.8130000000	54
88.8430000000	51
88.8730000000	41
88.9030000000	55
88.9330000000	48
88.9630000000	57
88.9930000000	62
89.0230000000	43
89.0530000000	42
89.0830000000	49
89.1130000000	36
89.1430000000	37
89.1730000000	52
89.2030000000	39
89.2330000000	50
89.2630000000	42
89.2930000000	35
89.3230000000	48
89.3530000000	46
89.3830000000	41
89.4130000000	36
89.4430000000	47
89.4730000000	45
89.5030000000	33
89.5330000000	36
89.5630000000	34
89.5930000000	28
89.6230000000	30
89.6530000000	43
89.6830000000	49
89.7130000000	38
89.7430000000	37
89.7730000000	42
89.8030000000	41
89.8330000000	38
89.8630000000	38
89.8930000000	42
89.9230000000	37
89.9530000000	34
89.9830000000	32
90.0130000000	43
90.0430000000	41
90.0730000000	36
90.1030000000	38
90.1330000000	32
90.1630000000	34
90.1930000000	35
90.2230000000	34
90.2530000000	41
90.2830000000	37
90.3130000000	43
90.3430000000	32
90.3730000000	43
90.4030000000	42
90.4330000000	40
90.4630000000	44
90.4930000000	39
90.5230000000	39
90.5530000000	40
90.5830000000	35
90.6130000000	43
90.6430000000	41
90.6730000000	37
90.7030000000	29
90.7330000000	41
90.7630000000	42
90.7930000000	48
90.8230000000	46
90.8530000000	44
90.8830000000	41
90.9130000000	31
90.9430000000	37
90.9730000000	43
91.0030000000	42
91.0330000000	47
91.0630000000	36
91.0930000000	38
91.1230000000	39
91.1530000000	37
91.1830000000	32
91.2130000000	42
91.2430000000	45
91.2730000000	42
91.3030000000	37
91.3330000000	42
91.3630000000	41
91.3930000000	45
91.4230000000	32
91.4530000000	35
91.4830000000	39
91.5130000000	34
91.5430000000	35
91.5730000000	39
91.6030000000	49
91.6330000000	47
91.6630000000	39
91.6930000000	40
91.7230000000	43
91.7530000000	53
91.7830000000	38
91.8130000000	43
91.8430000000	57
91.8730000000	41
91.9030000000	29
91.9330000000	39
91.9630000000	36
91.9930000000	36
92.0230000000	33
92.0530000000	40
92.0830000000	44
92.1130000000	42
92.1430000000	32
92.1730000000	33
92.2030000000	38
92.2330000000	40
92.2630000000	37
92.2930000000	40
92.3230000000	44
92.3530000000	39
92.3830000000	37
92.4130000000	35
92.4430000000	41
92.4730000000	49
92.5030000000	47
92.5330000000	30
92.5630000000	38
92.5930000000	39
92.6230000000	37
92.6530000000	32
92.6830000000	42
92.7130000000	42
92.7430000000	53
92.7730000000	43
92.8030000000	51
92.8330000000	37
92.8630000000	30
92.8930000000	39
92.9230000000	46
92.9530000000	39
92.9830000000	39
93.0130000000	38
93.0430000000	44
93.0730000000	43
93.1030000000	40
93.1330000000	40
93.1630000000	41
93.1930000000	48
93.2230000000	49
93.2530000000	37
93.2830000000	35
93.3130000000	46
93.3430000000	36
93.3730000000	38
93.4030000000	37
93.4330000000	44
93.4630000000	46
93.4930000000	35
93.5230000000	46
93.5530000000	45
93.5830000000	36
93.6130000000	38
93.6430000000	43
93.6730000000	45
93.7030000000	52
93.7330000000	45
93.7630000000	42
93.7930000000	39
93.8230000000	41
93.8530000000	42
93.8830000000	51
93.9130000000	32
93.9430000000	44
93.9730000000	42
94.0030000000	38
94.0330000000	33
94.0630000000	42
94.0930000000	42
94.1230000000	44
94.1530000000	34
94.1830000000	35
94.2130000000	34
94.2430000000	40
94.2730000000	40
94.3030000000	29
94.3330000000	32
94.3630000000	42
94.3930000000	41
94.4230000000	39
94.4530000000	48
94.4830000000	53
94.5130000000	43
94.5430000000	50
94.5730000000	65
94.6030000000	59
94.6330000000	62
94.6630000000	65
94.6930000000	59
94.7230000000	63
94.7530000000	63
94.7830000000	52
94.8130000000	53
94.8430000000	62
94.8730000000	61
94.9030000000	52
94.9330000000	47
94.9630000000	55
94.9930000000	40
95.0230000000	51
95.0530000000	41
95.0830000000	55
95.1130000000	46
95.1430000000	36
95.1730000000	43
95.2030000000	52
95.2330000000	39
95.2630000000	37
95.2930000000	38
95.3230000000	35
95.3530000000	38
95.3830000000	41
95.4130000000	41
95.4430000000	33
95.4730000000	39
95.5030000000	30
95.5330000000	35
95.5630000000	28
95.5930000000	45
95.6230000000	36
95.6530000000	44
95.6830000000	33
95.7130000000	45
95.7430000000	49
95.7730000000	37
95.8030000000	30
95.8330000000	24
95.8630000000	41
95.8930000000	48
95.9230000000	40
95.9530000000	33
95.9830000000	38
96.0130000000	47
96.0430000000	46
96.0730000000	41
96.1030000000	39
96.1330000000	41
96.1630000000	43
96.1930000000	33
96.2230000000	42
96.2530000000	43
96.2830000000	33
96.3130000000	33
96.3430000000	35
96.3730000000	37
96.4030000000	48
96.4330000000	38
96.4630000000	44
96.4930000000	39
96.5230000000	41
96.5530000000	37
96.5830000000	41
96.6130000000	40
96.6430000000	43
96.6730000000	50
96.7030000000	33
96.7330000000	39
96.7630000000	31
96.7930000000	33
96.8230000000	33
96.8530000000	41
96.8830000000	27
96.9130000000	45
96.9430000000	46
96.9730000000	41
97.0030000000	39
97.0330000000	39
97.0630000000	39
97.0930000000	33
97.1230000000	40
97.1530000000	44
97.1830000000	45
97.2130000000	39
97.2430000000	45
97.2730000000	45
97.3030000000	44
97.3330000000	40
97.3630000000	39
97.3930000000	40
97.4230000000	39
97.4530000000	39
97.4830000000	38
97.5130000000	39
97.5430000000	33
97.5730000000	35
97.6030000000	43
97.6330000000	36
97.6630000000	34
97.6930000000	41
97.7230000000	39
97.7530000000	32
97.7830000000	37
97.8130000000	34
97.8430000000	38
97.8730000000	27
97.9030000000	45
97.9330000000	42
97.9630000000	42
97.9930000000	38
98.0230000000	38
98.0530000000	33
98.0830000000	38
98.1130000000	45
98.1430000000	40
98.1730000000	37
98.2030000000	41
98.2330000000	33
98.2630000000	26
98.2930000000	41
98.3230000000	39
98.3530000000	30
98.3830000000	35
98.4130000000	38
98.4430000000	34
98.4730000000	36
98.5030000000	47
98.5330000000	44
98.5630000000	35
98.5930000000	42
98.6230000000	49
98.6530000000	47
98.6830000000	35
98.7130000000	35
98.7430000000	39
98.7730000000	43
98.8030000000	43
98.8330000000	38
98.8630000000	40
98.8930000000	38
98.9230000000	41
98.9530000000	38
98.9830000000	34
99.0130000000	40
99.0430000000	28
99.0730000000	45
99.1030000000	47
99.1330000000	30
99.1630000000	40
99.1930000000	36
99.2230000000	37
99.2530000000	33
99.2830000000	33
99.3130000000	40
99.3430000000	31
99.3730000000	39
99.4030000000	45
99.4330000000	30
99.4630000000	38
99.4930000000	42
99.5230000000	45
99.5530000000	33
99.5830000000	36
99.6130000000	32
99.6430000000	42
99.6730000000	39
99.7030000000	50
99.7330000000	31
99.7630000000	46
99.7930000000	49
99.8230000000	47
99.8530000000	45
99.8830000000	43
99.9130000000	35
99.9430000000	44
99.9730000000	43
100.0030000000	48
100.0330000000	43
100.0630000000	41
100.0930000000	36
100.1230000000	37
100.1530000000	34
100.1830000000	39
100.2130000000	49
100.2430000000	38
100.2730000000	50
100.3030000000	35
100.3330000000	39
100.3630000000	33
100.3930000000	36
100.4230000000	39
100.4530000000	31
100.4830000000	42
100.5130000000	37
100.5430000000	39
100.5730000000	41
100.6030000000	48
100.6330000000	31
100.6630000000	34
100.6930000000	35
100.7230000000	38
100.7530000000	41
100.7830000000	40
100.8130000000	32
100.8430000000	32
100.8730000000	27
100.9030000000	34
100.9330000000	42
100.9630000000	39
100.9930000000	47
101.0230000000	35
101.0530000000	42
101.0830000000	48
101.1130000000	41
101.1430000000	33
101.1730000000	32
101.2030000000	41
101.2330000000	41
101.2630000000	33
101.2930000000	43
101.3230000000	43
101.3530000000	39
101.3830000000	38
101.4130000000	45
101.4430000000	41
101.4730000000	41
101.5030000000	38
101.5330000000	41
101.5630000000	31
101.5930000000	30
101.6230000000	35
101.6530000000	33
101.6830000000	36
101.7130000000	37
101.7430000000	40
101.7730000000	40
101.8030000000	35
101.8330000000	39
101.8630000000	44
101.8930000000	37
101.9230000000	41
101.9530000000	39
101.9830000000	50
102.0130000000	35
102.0430000000	36
102.0730000000	48
102.1030000000	34
102.1330000000	53
102.1630000000	26
102.1930000000	36
102.2230000000	44
102.2530000000	46
102.2830000000	41
102.3130000000	41
102.3430000000	23
102.3730000000	35
102.4030000000	41
102.4330000000	45
102.4630000000	37
102.4930000000	49
102.5230000000	32
102.5530000000	38
102.5830000000	35
102.6130000000	40
102.6430000000	42
102.6730000000	32
102.7030000000	41
102.7330000000	39
102.7630000000	35
102.7930000000	39
102.8230000000	35
102.8530000000	38
102.8830000000	46
102.9130000000	43
102.9430000000	33
102.9730000000	31
103.0030000000	46
103.0330000000	43
103.0630000000	39
103.0930000000	45
103.1230000000	59
103.1530000000	52
103.1830000000	50
103.2130000000	52
103.2430000000	44
103.2730000000	39
103.3030000000	43
103.3330000000	49
103.3630000000	46
103.3930000000	42
103.4230000000	45
103.4530000000	44
103.4830000000	49
103.5130000000	53
103.5430000000	46
103.5730000000	39
103.6030000000	41
103.6330000000	17
103.6630000000	41
103.6930000000	48
103.7230000000	37
103.7530000000	40
103.7830000000	36
103.8130000000	29
103.8430000000	37
103.8730000000	39
103.9030000000	27
103.9330000000	35
103.9630000000	42
103.9930000000	35
104.0230000000	41
104.0530000000	33
104.0830000000	39
104.1130000000	38
104.1430000000	37
104.1730000000	30
104.2030000000	33
104.2330000000	46
104.2630000000	52
104.2930000000	40
104.3230000000	43
104.3530000000	55
104.3830000000	45
104.4130000000	41
104.4430000000	32
104.4730000000	44
104.5030000000	35
104.5330000000	34
104.5630000000	36
104.5930000000	38
104.6230000000	46
104.6530000000	44
104.6830000000	37
104.7130000000	26
104.7430000000	44
104.7730000000	40
104.8030000000	42
104.8330000000	45
104.8630000000	37
104.8930000000	43
104.9230000000	32
104.9530000000	31
104.9830000000	36
105.0130000000	32
105.0430000000	34
105.0730000000	36
105.1030000000	39
105.1330000000	36
105.1630000000	33
105.1930000000	35
105.2230000000	32
105.2530000000	35
105.2830000000	40
105.3130000000	28
105.3430000000	47
105.3730000000	42
105.4030000000	35
105.4330000000	35
105.4630000000	39
105.4930000000	41
105.5230000000	32
105.5530000000	40
105.5830000000	37
105.6130000000	43
105.6430000000	37
105.6730000000	36
105.7030000000	40
105.7330000000	42
105.7630000000	35
105.7930000000	42
105.8230000000	43
105.8530000000	36
105.8830000000	36
105.9130000000	27
105.9430000000	34
105.9730000000	38
106.0030000000	35
106.0330000000	35
106.0630000000	31
106.0930000000	33
106.1230000000	34
106.1530000000	24
106.1830000000	33
106.2130000000	48
106.2430000000	30
106.2730000000	25
106.3030000000	42
106.3330000000	42
106.3630000000	39
106.3930000000	37
106.4230000000	37
106.4530000000	32
106.4830000000	30
106.5130000000	32
106.5430000000	31
106.5730000000	37
106.6030000000	40
106.6330000000	34
106.6630000000	30
106.6930000000	39
106.7230000000	28
106.7530000000	34
106.7830000000	36
106.8130000000	24
106.8430000000	33
106.8730000000	31
106.9030000000	49
106.9330000000	47
106.9630000000	33
106.9930000000	30
107.0230000000	30
107.0530000000	31
107.0830000000	32
107.1130000000	32
107.1430000000	37
107.1730000000	44
107.2030000000	39
107.2330000000	29
107.2630000000	38
107.2930000000	39
107.3230000000	35
107.3530000000	31
107.3830000000	33
107.4130000000	33
107.4430000000	39
107.4730000000	31
107.5030000000	35
107.5330000000	31
107.5630000000	43
107.5930000000	38
107.6230000000	32
107.6530000000	42
107.6830000000	40
107.7130000000	37
107.7430000000	40
107.7730000000	29
107.8030000000	35
107.8330000000	42
107.8630000000	36
107.8930000000	37
107.9230000000	31
107.9530000000	30
107.9830000000	37
108.0130000000	39
108.0430000000	38
108.0730000000	38
108.1030000000	31
108.1330000000	42
108.1630000000	44
108.1930000000	32
108.2230000000	37
108.2530000000	34
108.2830000000	34
108.3130000000	30
108.3430000000	35
108.3730000000	29
108.4030000000	35
108.4330000000	33
108.4630000000	28
108.4930000000	31
108.5230000000	41
108.5530000000	36
108.5830000000	37
108.6130000000	39
108.6430000000	35
108.6730000000	22
108.7030000000	26
108.7330000000	28
108.7630000000	28
108.7930000000	30
108.8230000000	31
108.8530000000	38
108.8830000000	35
108.9130000000	38
108.9430000000	41
108.9730000000	51
109.0030000000	38
109.0330000000	36
109.0630000000	32
109.0930000000	29
109.1230000000	42
109.1530000000	37
109.1830000000	37
109.2130000000	29
109.2430000000	39
109.2730000000	38
109.3030000000	38
109.3330000000	36
109.3630000000	37
109.3930000000	27
109.4230000000	29
109.4530000000	37
109.4830000000	32
109.5130000000	37
109.5430000000	36
109.5730000000	35
109.6030000000	31
109.6330000000	38
109.6630000000	39
109.6930000000	51
109.7230000000	40
109.7530000000	33
109.7830000000	44
109.8130000000	48
109.8430000000	34
109.8730000000	48
109.9030000000	51
109.9330000000	29
109.9630000000	33
109.9930000000	34
110.0230000000	34
110.0530000000	48
110.0830000000	41
110.1130000000	36
110.1430000000	43
110.1730000000	44
110.2030000000	42
110.2330000000	35
110.2630000000	44
110.2930000000	29
110.3230000000	35
110.3530000000	38
110.3830000000	35
110.4130000000	32
110.4430000000	40
110.4730000000	44
110.5030000000	29
110.5330000000	34
110.5630000000	33
110.5930000000	39
110.6230000000	38
110.6530000000	35
110.6830000000	36
110.7130000000	34
110.7430000000	39
110.7730000000	39
110.8030000000	34
110.8330000000	36
110.8630000000	44
110.8930000000	39
110.9230000000	34
110.9530000000	40
110.9830000000	38
111.0130000000	38
111.0430000000	32
111.0730000000	31
111.1030000000	39
111.1330000000	37
111.1630000000	32
111.1930000000	33
111.2230000000	40
111.2530000000	41
111.2830000000	32
111.3130000000	40
111.3430000000	51
111.3730000000	35
111.4030000000	37
111.4330000000	33
111.4630000000	33
111.4930000000	48
111.5230000000	34
111.5530000000	37
111.5830000000	36
111.6130000000	45
111.6430000000	44
111.6730000000	33
111.7030000000	42
111.7330000000	42
111.7630000000	34
111.7930000000	37
111.8230000000	28
111.8530000000	43
111.8830000000	26
111.9130000000	30
111.9430000000	37
111.9730000000	40
112.0030000000	40
112.0330000000	43
112.0630000000	31
112.0930000000	36
112.1230000000	41
112.1530000000	37
112.1830000000	41
112.2130000000	36
112.2430000000	34
112.2730000000	31
112.3030000000	44
112.3330000000	36
112.3630000000	32
112.3930000000	38
112.4230000000	34
112.4530000000	48
112.4830000000	39
112.5130000000	35
112.5430000000	43
112.5730000000	37
112.6030000000	38
112.6330000000	41
112.6630000000	36
112.6930000000	40
112.7230000000	40
112.7530000000	35
112.7830000000	36
112.8130000000	38
112.8430000000	37
112.8730000000	41
112.9030000000	40
112.9330000000	46
112.9630000000	32
112.9930000000	35
113.0230000000	43
113.0530000000	35
113.0830000000	25
113.1130000000	30
113.1430000000	31
113.1730000000	34
113.2030000000	41
113.2330000000	37
113.2630000000	35
113.2930000000	23
113.3230000000	24
113.3530000000	34
113.3830000000	34
113.4130000000	37
113.4430000000	41
113.4730000000	37
113.5030000000	41
113.5330000000	36
113.5630000000	25
113.5930000000	42
113.6230000000	42
113.6530000000	41
113.6830000000	47
113.7130000000	34
113.7430000000	39
113.7730000000	38
113.8030000000	46
113.8330000000	46
113.8630000000	40
113.8930000000	39
113.9230000000	41
113.9530000000	34
113.9830000000	50
114.0130000000	45
114.0430000000	31
114.0730000000	44
114.1030000000	30
114.1330000000	28
114.1630000000	33
114.1930000000	32
114.2230000000	40
114.2530000000	35
114.2830000000	31
114.3130000000	49
114.3430000000	52
114.3730000000	39
114.4030000000	37
114.4330000000	29
114.4630000000	1
114.4930000000	1
114.5230000000	1
114.5530000000	1
114.5830000000	1
