0.3130000000	3
0.3430000000	1
0.3730000000	1
0.4030000000	1
0.4330000000	1
0.4630000000	1
0.4930000000	1
0.5230000000	1
0.5530000000	1
0.5830000000	1
0.6130000000	1
0.6430000000	1
0.6730000000	1
0.7030000000	2
0.7330000000	1
0.7630000000	1
0.7930000000	1
0.8230000000	2
0.8530000000	1
0.8830000000	1
0.9130000000	1
0.9430000000	1
0.9730000000	1
1.0030000000	1
1.0330000000	1
1.0630000000	1
1.0930000000	1
1.1230000000	1
1.1530000000	1
1.1830000000	2
1.2130000000	1
1.2430000000	1
1.2730000000	1
1.3030000000	3
1.3330000000	2
1.3630000000	1
1.3930000000	3
1.4230000000	2
1.4530000000	1
1.4830000000	1
1.5130000000	2
1.5430000000	1
1.5730000000	1
1.6030000000	1
1.6330000000	1
1.6630000000	3
1.6930000000	2
1.7230000000	1
1.7530000000	1
1.7830000000	1
1.8130000000	1
1.8430000000	1
1.8730000000	1
1.9030000000	1
1.9330000000	2
1.9630000000	1
1.9930000000	2
2.0230000000	2
2.0530000000	1
2.0830000000	1
2.1130000000	1
2.1430000000	1
2.1730000000	1
2.2030000000	1
2.2330000000	1
2.2630000000	1
2.2930000000	1
2.3230000000	1
2.3530000000	1
2.3830000000	2
2.4130000000	2
2.4430000000	1
2.4730000000	1
2.5030000000	2
2.5330000000	2
2.5630000000	1
2.5930000000	1
2.6230000000	1
2.6530000000	1
2.6830000000	1
2.7130000000	1
2.7430000000	1
2.7730000000	2
2.8030000000	1
2.8330000000	2
2.8630000000	2
2.8930000000	2
2.9230000000	2
2.9530000000	1
2.9830000000	1
3.0130000000	1
3.0430000000	2
3.0730000000	1
3.1030000000	1
3.1330000000	2
3.1630000000	2
3.1930000000	4
3.2230000000	2
3.2530000000	2
3.2830000000	3
3.3130000000	2
3.3430000000	1
3.3730000000	2
3.4030000000	1
3.4330000000	1
3.4630000000	1
3.4930000000	3
3.5230000000	2
3.5530000000	3
3.5830000000	3
3.6130000000	1
3.6430000000	2
3.6730000000	1
3.7030000000	2
3.7330000000	3
3.7630000000	1
3.7930000000	1
3.8230000000	2
3.8530000000	2
3.8830000000	3
3.9130000000	2
3.9430000000	3
3.9730000000	1
4.0030000000	2
4.0330000000	6
4.0630000000	3
4.0930000000	2
4.1230000000	1
4.1530000000	2
4.1830000000	2
4.2130000000	2
4.2430000000	5
4.2730000000	5
4.3030000000	5
4.3330000000	5
4.3630000000	5
4.3930000000	6
4.4230000000	10
4.4530000000	16
4.4830000000	17
4.5130000000	29
4.5430000000	42
4.5730000000	59
4.6030000000	84
4.6330000000	93
4.6630000000	109
4.6930000000	129
4.7230000000	149
4.7530000000	126
4.7830000000	126
4.8130000000	150
4.8430000000	141
4.8730000000	134
4.9030000000	153
4.9330000000	137
4.9630000000	155
4.9930000000	144
5.0230000000	139
5.0530000000	163
5.0830000000	125
5.1130000000	158
5.1430000000	133
5.1730000000	159
5.2030000000	143
5.2330000000	136
5.2630000000	141
5.2930000000	131
5.3230000000	110
5.3530000000	152
5.3830000000	141
5.4130000000	140
5.4430000000	142
5.4730000000	136
5.5030000000	161
5.5330000000	153
5.5630000000	134
5.5930000000	138
5.6230000000	115
5.6530000000	153
5.6830000000	146
5.7130000000	142
5.7430000000	153
5.7730000000	152
5.8030000000	143
5.8330000000	153
5.8630000000	148
5.8930000000	129
5.9230000000	154
5.9530000000	140
5.9830000000	153
6.0130000000	145
6.0430000000	126
6.0730000000	131
6.1030000000	167
6.1330000000	149
6.1630000000	152
6.1930000000	136
6.2230000000	131
6.2530000000	144
6.2830000000	137
6.3130000000	159
6.3430000000	151
6.3730000000	149
6.4030000000	158
6.4330000000	132
6.4630000000	140
6.4930000000	158
6.5230000000	177
6.5530000000	124
6.5830000000	154
6.6130000000	142
6.6430000000	135
6.6730000000	132
6.7030000000	146
6.7330000000	145
6.7630000000	136
6.7930000000	160
6.8230000000	139
6.8530000000	142
6.8830000000	170
6.9130000000	149
6.9430000000	144
6.9730000000	151
7.0030000000	145
7.0330000000	138
7.0630000000	116
7.0930000000	147
7.1230000000	148
7.1530000000	143
7.1830000000	151
7.2130000000	146
7.2430000000	141
7.2730000000	155
7.3030000000	162
7.3330000000	164
7.3630000000	153
7.3930000000	150
7.4230000000	154
7.4530000000	158
7.4830000000	160
7.5130000000	147
7.5430000000	167
7.5730000000	167
7.6030000000	151
7.6330000000	164
7.6630000000	156
7.6930000000	155
7.7230000000	156
7.7530000000	150
7.7830000000	151
7.8130000000	132
7.8430000000	144
7.8730000000	159
7.9030000000	157
7.9330000000	154
7.9630000000	138
7.9930000000	135
8.0230000000	125
8.0530000000	136
8.0830000000	142
8.1130000000	148
8.1430000000	151
8.1730000000	149
8.2030000000	146
8.2330000000	131
8.2630000000	146
8.2930000000	138
8.3230000000	142
8.3530000000	140
8.3830000000	159
8.4130000000	132
8.4430000000	136
8.4730000000	153
8.5030000000	151
8.5330000000	155
8.5630000000	153
8.5930000000	123
8.6230000000	139
8.6530000000	158
8.6830000000	150
8.7130000000	139
8.7430000000	158
8.7730000000	138
8.8030000000	132
8.8330000000	166
8.8630000000	151
8.8930000000	127
8.9230000000	143
8.9530000000	148
8.9830000000	134
9.0130000000	145
9.0430000000	137
9.0730000000	158
9.1030000000	144
9.1330000000	138
9.1630000000	133
9.1930000000	158
9.2230000000	155
9.2530000000	145
9.2830000000	150
9.3130000000	164
9.3430000000	162
9.3730000000	116
9.4030000000	152
9.4330000000	151
9.4630000000	168
9.4930000000	142
9.5230000000	138
9.5530000000	148
9.5830000000	162
9.6130000000	136
9.6430000000	147
9.6730000000	141
9.7030000000	155
9.7330000000	150
9.7630000000	148
9.7930000000	131
9.8230000000	142
9.8530000000	138
9.8830000000	164
9.9130000000	150
9.9430000000	145
9.9730000000	132
10.0030000000	136
10.0330000000	137
10.0630000000	145
10.0930000000	150
10.1230000000	140
10.1530000000	150
10.1830000000	155
10.2130000000	144
10.2430000000	143
10.2730000000	147
10.3030000000	143
10.3330000000	146
10.3630000000	136
10.3930000000	142
10.4230000000	139
10.4530000000	157
10.4830000000	148
10.5130000000	140
10.5430000000	153
10.5730000000	148
10.6030000000	142
10.6330000000	135
10.6630000000	139
10.6930000000	139
10.7230000000	136
10.7530000000	148
10.7830000000	167
10.8130000000	132
10.8430000000	134
10.8730000000	125
10.9030000000	124
10.9330000000	154
10.9630000000	128
10.9930000000	142
11.0230000000	148
11.0530000000	166
11.0830000000	138
11.1130000000	155
11.1430000000	152
11.1730000000	166
11.2030000000	140
11.2330000000	137
11.2630000000	155
11.2930000000	169
11.3230000000	150
11.3530000000	144
11.3830000000	162
11.4130000000	143
11.4430000000	152
11.4730000000	139
11.5030000000	140
11.5330000000	158
11.5630000000	147
11.5930000000	126
11.6230000000	137
11.6530000000	152
11.6830000000	156
11.7130000000	158
11.7430000000	139
11.7730000000	131
11.8030000000	145
11.8330000000	148
11.8630000000	145
11.8930000000	142
11.9230000000	146
11.9530000000	147
11.9830000000	157
12.0130000000	142
12.0430000000	141
12.0730000000	148
12.1030000000	128
12.1330000000	161
12.1630000000	151
12.1930000000	154
12.2230000000	144
12.2530000000	148
12.2830000000	145
12.3130000000	160
12.3430000000	148
12.3730000000	132
12.4030000000	132
12.4330000000	130
12.4630000000	151
12.4930000000	154
12.5230000000	145
12.5530000000	147
12.5830000000	153
12.6130000000	142
12.6430000000	144
12.6730000000	140
12.7030000000	150
12.7330000000	156
12.7630000000	141
12.7930000000	151
12.8230000000	171
12.8530000000	154
12.8830000000	144
12.9130000000	165
12.9430000000	153
12.9730000000	138
13.0030000000	151
13.0330000000	158
13.0630000000	162
13.0930000000	152
13.1230000000	135
13.1530000000	133
13.1830000000	125
13.2130000000	130
13.2430000000	145
13.2730000000	143
13.3030000000	135
13.3330000000	161
13.3630000000	139
13.3930000000	136
13.4230000000	143
13.4530000000	141
13.4830000000	146
13.5130000000	156
13.5430000000	139
13.5730000000	144
13.6030000000	130
13.6330000000	134
13.6630000000	144
13.6930000000	139
13.7230000000	138
13.7530000000	124
13.7830000000	138
13.8130000000	137
13.8430000000	136
13.8730000000	149
13.9030000000	146
13.9330000000	153
13.9630000000	135
13.9930000000	138
14.0230000000	141
14.0530000000	145
14.0830000000	130
14.1130000000	134
14.1430000000	134
14.1730000000	143
14.2030000000	125
14.2330000000	139
14.2630000000	137
14.2930000000	144
14.3230000000	147
14.3530000000	136
14.3830000000	142
14.4130000000	126
14.4430000000	160
14.4730000000	137
14.5030000000	163
14.5330000000	148
14.5630000000	145
14.5930000000	155
14.6230000000	144
14.6530000000	138
14.6830000000	164
14.7130000000	149
14.7430000000	146
14.7730000000	151
14.8030000000	142
14.8330000000	134
14.8630000000	158
14.8930000000	160
14.9230000000	151
14.9530000000	149
14.9830000000	150
15.0130000000	143
15.0430000000	170
15.0730000000	148
15.1030000000	149
15.1330000000	156
15.1630000000	157
15.1930000000	166
15.2230000000	159
15.2530000000	140
15.2830000000	153
15.3130000000	168
15.3430000000	140
15.3730000000	158
15.4030000000	163
15.4330000000	156
15.4630000000	167
15.4930000000	161
15.5230000000	150
15.5530000000	118
15.5830000000	155
15.6130000000	135
15.6430000000	158
15.6730000000	127
15.7030000000	161
15.7330000000	129
15.7630000000	138
15.7930000000	154
15.8230000000	151
15.8530000000	144
15.8830000000	160
15.9130000000	146
15.9430000000	150
15.9730000000	147
16.0030000000	124
16.0330000000	146
16.0630000000	142
16.0930000000	166
16.1230000000	151
16.1530000000	142
16.1830000000	140
16.2130000000	127
16.2430000000	151
16.2730000000	133
16.3030000000	126
16.3330000000	150
16.3630000000	150
16.3930000000	134
16.4230000000	158
16.4530000000	156
16.4830000000	138
16.5130000000	148
16.5430000000	147
16.5730000000	137
16.6030000000	141
16.6330000000	156
16.6630000000	144
16.6930000000	130
16.7230000000	114
16.7530000000	128
16.7830000000	157
16.8130000000	173
16.8430000000	150
16.8730000000	134
16.9030000000	150
16.9330000000	130
16.9630000000	156
16.9930000000	148
17.0230000000	148
17.0530000000	134
17.0830000000	138
17.1130000000	136
17.1430000000	135
17.1730000000	143
17.2030000000	158
17.2330000000	157
17.2630000000	143
17.2930000000	146
17.3230000000	146
17.3530000000	135
17.3830000000	145
17.4130000000	148
17.4430000000	131
17.4730000000	161
17.5030000000	149
17.5330000000	143
17.5630000000	164
17.5930000000	155
17.6230000000	144
17.6530000000	134
17.6830000000	145
17.7130000000	154
17.7430000000	151
17.7730000000	138
17.8030000000	135
17.8330000000	139
17.8630000000	134
17.8930000000	144
17.9230000000	141
17.9530000000	156
17.9830000000	155
18.0130000000	126
18.0430000000	131
18.0730000000	137
18.1030000000	147
18.1330000000	145
18.1630000000	141
18.1930000000	136
18.2230000000	148
18.2530000000	137
18.2830000000	123
18.3130000000	139
18.3430000000	158
18.3730000000	134
18.4030000000	146
18.4330000000	133
18.4630000000	132
18.4930000000	144
18.5230000000	148
18.5530000000	143
18.5830000000	127
18.6130000000	151
18.6430000000	119
18.6730000000	143
18.7030000000	157
18.7330000000	134
18.7630000000	126
18.7930000000	141
18.8230000000	156
18.8530000000	150
18.8830000000	136
18.9130000000	144
18.9430000000	140
18.9730000000	152
19.0030000000	156
19.0330000000	153
19.0630000000	136
19.0930000000	133
19.1230000000	158
19.1530000000	157
19.1830000000	131
19.2130000000	142
19.2430000000	160
19.2730000000	131
19.3030000000	153
19.3330000000	158
19.3630000000	148
19.3930000000	128
19.4230000000	146
19.4530000000	140
19.4830000000	150
19.5130000000	125
19.5430000000	140
19.5730000000	162
19.6030000000	172
19.6330000000	159
19.6630000000	154
19.6930000000	135
19.7230000000	163
19.7530000000	162
19.7830000000	153
19.8130000000	147
19.8430000000	150
19.8730000000	159
19.9030000000	147
19.9330000000	165
19.9630000000	148
19.9930000000	139
20.0230000000	153
20.0530000000	162
20.0830000000	121
20.1130000000	164
20.1430000000	139
20.1730000000	137
20.2030000000	175
20.2330000000	161
20.2630000000	146
20.2930000000	148
20.3230000000	170
20.3530000000	143
20.3830000000	144
20.4130000000	144
20.4430000000	179
20.4730000000	168
20.5030000000	177
20.5330000000	132
20.5630000000	142
20.5930000000	143
20.6230000000	169
20.6530000000	197
20.6830000000	261
20.7130000000	321
20.7430000000	385
20.7730000000	482
20.8030000000	631
20.8330000000	837
20.8630000000	904
20.8930000000	894
20.9230000000	713
20.9530000000	508
20.9830000000	392
21.0130000000	292
21.0430000000	254
21.0730000000	212
21.1030000000	181
21.1330000000	167
21.1630000000	162
21.1930000000	152
21.2230000000	140
21.2530000000	150
21.2830000000	153
21.3130000000	156
21.3430000000	174
21.3730000000	156
21.4030000000	170
21.4330000000	144
21.4630000000	174
21.4930000000	146
21.5230000000	168
21.5530000000	185
21.5830000000	150
21.6130000000	159
21.6430000000	137
21.6730000000	153
21.7030000000	156
21.7330000000	155
21.7630000000	164
21.7930000000	160
21.8230000000	153
21.8530000000	140
21.8830000000	155
21.9130000000	149
21.9430000000	154
21.9730000000	161
22.0030000000	162
22.0330000000	157
22.0630000000	154
22.0930000000	172
22.1230000000	180
22.1530000000	163
22.1830000000	159
22.2130000000	148
22.2430000000	157
22.2730000000	173
22.3030000000	179
22.3330000000	173
22.3630000000	174
22.3930000000	172
22.4230000000	162
22.4530000000	177
22.4830000000	167
22.5130000000	166
22.5430000000	167
22.5730000000	172
22.6030000000	170
22.6330000000	160
22.6630000000	167
22.6930000000	162
22.7230000000	171
22.7530000000	164
22.7830000000	178
22.8130000000	154
22.8430000000	153
22.8730000000	179
22.9030000000	157
22.9330000000	146
22.9630000000	151
22.9930000000	145
23.0230000000	137
23.0530000000	145
23.0830000000	145
23.1130000000	169
23.1430000000	172
23.1730000000	153
23.2030000000	158
23.2330000000	140
23.2630000000	170
23.2930000000	164
23.3230000000	156
23.3530000000	148
23.3830000000	151
23.4130000000	185
23.4430000000	154
23.4730000000	157
23.5030000000	178
23.5330000000	184
23.5630000000	180
23.5930000000	146
23.6230000000	140
23.6530000000	166
23.6830000000	171
23.7130000000	166
23.7430000000	177
23.7730000000	188
23.8030000000	149
23.8330000000	171
23.8630000000	168
23.8930000000	191
23.9230000000	171
23.9530000000	165
23.9830000000	162
24.0130000000	160
24.0430000000	154
24.0730000000	150
24.1030000000	172
24.1330000000	132
24.1630000000	139
24.1930000000	177
24.2230000000	163
24.2530000000	186
24.2830000000	168
24.3130000000	185
24.3430000000	160
24.3730000000	164
24.4030000000	177
24.4330000000	151
24.4630000000	154
24.4930000000	165
24.5230000000	159
24.5530000000	174
24.5830000000	166
24.6130000000	165
24.6430000000	148
24.6730000000	147
24.7030000000	153
24.7330000000	159
24.7630000000	168
24.7930000000	157
24.8230000000	176
24.8530000000	161
24.8830000000	181
24.9130000000	157
24.9430000000	188
24.9730000000	165
25.0030000000	160
25.0330000000	153
25.0630000000	159
25.0930000000	176
25.1230000000	165
25.1530000000	167
25.1830000000	176
25.2130000000	160
25.2430000000	176
25.2730000000	169
25.3030000000	208
25.3330000000	148
25.3630000000	179
25.3930000000	183
25.4230000000	164
25.4530000000	149
25.4830000000	156
25.5130000000	166
25.5430000000	159
25.5730000000	169
25.6030000000	185
25.6330000000	155
25.6630000000	174
25.6930000000	188
25.7230000000	181
25.7530000000	180
25.7830000000	179
25.8130000000	190
25.8430000000	206
25.8730000000	293
25.9030000000	390
25.9330000000	488
25.9630000000	676
25.9930000000	861
26.0230000000	1159
26.0530000000	1477
26.0830000000	1445
26.1130000000	1192
26.1430000000	871
26.1730000000	619
26.2030000000	433
26.2330000000	306
26.2630000000	253
26.2930000000	202
26.3230000000	188
26.3530000000	167
26.3830000000	169
26.4130000000	164
26.4430000000	161
26.4730000000	146
26.5030000000	148
26.5330000000	149
26.5630000000	141
26.5930000000	140
26.6230000000	156
26.6530000000	146
26.6830000000	135
26.7130000000	139
26.7430000000	161
26.7730000000	159
26.8030000000	151
26.8330000000	157
26.8630000000	163
26.8930000000	159
26.9230000000	145
26.9530000000	147
26.9830000000	149
27.0130000000	145
27.0430000000	134
27.0730000000	130
27.1030000000	135
27.1330000000	151
27.1630000000	146
27.1930000000	120
27.2230000000	148
27.2530000000	151
27.2830000000	157
27.3130000000	143
27.3430000000	158
27.3730000000	131
27.4030000000	135
27.4330000000	129
27.4630000000	136
27.4930000000	143
27.5230000000	143
27.5530000000	133
27.5830000000	123
27.6130000000	129
27.6430000000	117
27.6730000000	159
27.7030000000	142
27.7330000000	137
27.7630000000	136
27.7930000000	155
27.8230000000	163
27.8530000000	139
27.8830000000	160
27.9130000000	132
27.9430000000	131
27.9730000000	124
28.0030000000	121
28.0330000000	157
28.0630000000	147
28.0930000000	139
28.1230000000	151
28.1530000000	167
28.1830000000	186
28.2130000000	191
28.2430000000	206
28.2730000000	174
28.3030000000	185
28.3330000000	171
28.3630000000	172
28.3930000000	168
28.4230000000	155
28.4530000000	138
28.4830000000	134
28.5130000000	146
28.5430000000	124
28.5730000000	114
28.6030000000	133
28.6330000000	139
28.6630000000	124
28.6930000000	125
28.7230000000	126
28.7530000000	136
28.7830000000	142
28.8130000000	145
28.8430000000	145
28.8730000000	116
28.9030000000	120
28.9330000000	126
28.9630000000	151
28.9930000000	127
29.0230000000	127
29.0530000000	134
29.0830000000	119
29.1130000000	123
29.1430000000	130
29.1730000000	128
29.2030000000	134
29.2330000000	134
29.2630000000	124
29.2930000000	121
29.3230000000	134
29.3530000000	142
29.3830000000	133
29.4130000000	122
29.4430000000	129
29.4730000000	106
29.5030000000	127
29.5330000000	127
29.5630000000	122
29.5930000000	125
29.6230000000	139
29.6530000000	120
29.6830000000	109
29.7130000000	110
29.7430000000	120
29.7730000000	120
29.8030000000	114
29.8330000000	143
29.8630000000	120
29.8930000000	115
29.9230000000	114
29.9530000000	93
29.9830000000	123
30.0130000000	112
30.0430000000	119
30.0730000000	116
30.1030000000	113
30.1330000000	122
30.1630000000	127
30.1930000000	117
30.2230000000	115
30.2530000000	117
30.2830000000	105
30.3130000000	117
30.3430000000	119
30.3730000000	105
30.4030000000	104
30.4330000000	142
30.4630000000	113
30.4930000000	103
30.5230000000	98
30.5530000000	107
30.5830000000	112
30.6130000000	122
30.6430000000	114
30.6730000000	119
30.7030000000	118
30.7330000000	113
30.7630000000	114
30.7930000000	105
30.8230000000	126
30.8530000000	122
30.8830000000	104
30.9130000000	117
30.9430000000	111
30.9730000000	123
31.0030000000	124
31.0330000000	114
31.0630000000	130
31.0930000000	120
31.1230000000	120
31.1530000000	107
31.1830000000	130
31.2130000000	110
31.2430000000	114
31.2730000000	132
31.3030000000	116
31.3330000000	111
31.3630000000	115
31.3930000000	127
31.4230000000	114
31.4530000000	105
31.4830000000	108
31.5130000000	103
31.5430000000	122
31.5730000000	108
31.6030000000	107
31.6330000000	114
31.6630000000	123
31.6930000000	103
31.7230000000	105
31.7530000000	118
31.7830000000	90
31.8130000000	101
31.8430000000	119
31.8730000000	96
31.9030000000	113
31.9330000000	96
31.9630000000	103
31.9930000000	101
32.0230000000	119
32.0530000000	104
32.0830000000	113
32.1130000000	108
32.1430000000	114
32.1730000000	92
32.2030000000	102
32.2330000000	98
32.2630000000	112
32.2930000000	87
32.3230000000	105
32.3530000000	110
32.3830000000	102
32.4130000000	113
32.4430000000	100
32.4730000000	111
32.5030000000	115
32.5330000000	89
32.5630000000	99
32.5930000000	104
32.6230000000	112
32.6530000000	101
32.6830000000	91
32.7130000000	99
32.7430000000	115
32.7730000000	119
32.8030000000	93
32.8330000000	94
32.8630000000	106
32.8930000000	117
32.9230000000	113
32.9530000000	98
32.9830000000	112
33.0130000000	121
33.0430000000	120
33.0730000000	101
33.1030000000	108
33.1330000000	114
33.1630000000	110
33.1930000000	111
33.2230000000	113
33.2530000000	124
33.2830000000	127
33.3130000000	127
33.3430000000	146
33.3730000000	166
33.4030000000	208
33.4330000000	293
33.4630000000	430
33.4930000000	629
33.5230000000	976
33.5530000000	1445
33.5830000000	1996
33.6130000000	2443
33.6430000000	2621
33.6730000000	2380
33.7030000000	1902
33.7330000000	1316
33.7630000000	868
33.7930000000	558
33.8230000000	351
33.8530000000	273
33.8830000000	201
33.9130000000	154
33.9430000000	112
33.9730000000	125
34.0030000000	133
34.0330000000	115
34.0630000000	91
34.0930000000	98
34.1230000000	122
34.1530000000	122
34.1830000000	101
34.2130000000	96
34.2430000000	107
34.2730000000	99
34.3030000000	102
34.3330000000	100
34.3630000000	100
34.3930000000	93
34.4230000000	100
34.4530000000	97
34.4830000000	90
34.5130000000	104
34.5430000000	124
34.5730000000	111
34.6030000000	88
34.6330000000	93
34.6630000000	91
34.6930000000	96
34.7230000000	91
34.7530000000	113
34.7830000000	104
34.8130000000	92
34.8430000000	93
34.8730000000	90
34.9030000000	93
34.9330000000	106
34.9630000000	98
34.9930000000	96
35.0230000000	98
35.0530000000	91
35.0830000000	76
35.1130000000	92
35.1430000000	97
35.1730000000	107
35.2030000000	105
35.2330000000	85
35.2630000000	100
35.2930000000	109
35.3230000000	90
35.3530000000	97
35.3830000000	90
35.4130000000	92
35.4430000000	107
35.4730000000	101
35.5030000000	84
35.5330000000	99
35.5630000000	89
35.5930000000	84
35.6230000000	79
35.6530000000	84
35.6830000000	83
35.7130000000	90
35.7430000000	94
35.7730000000	87
35.8030000000	95
35.8330000000	104
35.8630000000	87
35.8930000000	92
35.9230000000	102
35.9530000000	119
35.9830000000	134
36.0130000000	123
36.0430000000	178
36.0730000000	207
36.1030000000	215
36.1330000000	300
36.1630000000	289
36.1930000000	284
36.2230000000	245
36.2530000000	217
36.2830000000	171
36.3130000000	136
36.3430000000	118
36.3730000000	104
36.4030000000	104
36.4330000000	103
36.4630000000	95
36.4930000000	93
36.5230000000	104
36.5530000000	85
36.5830000000	99
36.6130000000	81
36.6430000000	97
36.6730000000	81
36.7030000000	98
36.7330000000	82
36.7630000000	87
36.7930000000	78
36.8230000000	88
36.8530000000	83
36.8830000000	82
36.9130000000	86
36.9430000000	100
36.9730000000	97
37.0030000000	86
37.0330000000	111
37.0630000000	84
37.0930000000	68
37.1230000000	97
37.1530000000	94
37.1830000000	92
37.2130000000	92
37.2430000000	105
37.2730000000	110
37.3030000000	95
37.3330000000	89
37.3630000000	72
37.3930000000	97
37.4230000000	107
37.4530000000	95
37.4830000000	89
37.5130000000	107
37.5430000000	103
37.5730000000	87
37.6030000000	88
37.6330000000	107
37.6630000000	96
37.6930000000	85
37.7230000000	98
37.7530000000	112
37.7830000000	106
37.8130000000	98
37.8430000000	108
37.8730000000	123
37.9030000000	128
37.9330000000	138
37.9630000000	164
37.9930000000	233
38.0230000000	321
38.0530000000	492
38.0830000000	773
38.1130000000	1163
38.1430000000	1707
38.1730000000	2385
38.2030000000	2870
38.2330000000	3083
38.2630000000	2790
38.2930000000	2134
38.3230000000	1524
38.3530000000	1058
38.3830000000	697
38.4130000000	455
38.4430000000	299
38.4730000000	209
38.5030000000	178
38.5330000000	142
38.5630000000	130
38.5930000000	122
38.6230000000	106
38.6530000000	98
38.6830000000	106
38.7130000000	107
38.7430000000	112
38.7730000000	106
38.8030000000	90
38.8330000000	90
38.8630000000	91
38.8930000000	96
38.9230000000	98
38.9530000000	95
38.9830000000	91
39.0130000000	86
39.0430000000	91
39.0730000000	86
39.1030000000	86
39.1330000000	99
39.1630000000	90
39.1930000000	88
39.2230000000	73
39.2530000000	93
39.2830000000	81
39.3130000000	82
39.3430000000	80
39.3730000000	82
39.4030000000	93
39.4330000000	77
39.4630000000	79
39.4930000000	75
39.5230000000	71
39.5530000000	91
39.5830000000	83
39.6130000000	89
39.6430000000	84
39.6730000000	93
39.7030000000	72
39.7330000000	80
39.7630000000	91
39.7930000000	75
39.8230000000	74
39.8530000000	88
39.8830000000	92
39.9130000000	64
39.9430000000	91
39.9730000000	74
40.0030000000	84
40.0330000000	82
40.0630000000	79
40.0930000000	82
40.1230000000	70
40.1530000000	84
40.1830000000	71
40.2130000000	80
40.2430000000	85
40.2730000000	79
40.3030000000	82
40.3330000000	54
40.3630000000	91
40.3930000000	70
40.4230000000	72
40.4530000000	89
40.4830000000	71
40.5130000000	72
40.5430000000	75
40.5730000000	75
40.6030000000	79
40.6330000000	82
40.6630000000	71
40.6930000000	81
40.7230000000	65
40.7530000000	88
40.7830000000	60
40.8130000000	83
40.8430000000	74
40.8730000000	82
40.9030000000	72
40.9330000000	82
40.9630000000	76
40.9930000000	69
41.0230000000	79
41.0530000000	76
41.0830000000	83
41.1130000000	66
41.1430000000	71
41.1730000000	81
41.2030000000	80
41.2330000000	78
41.2630000000	73
41.2930000000	98
41.3230000000	80
41.3530000000	92
41.3830000000	76
41.4130000000	100
41.4430000000	73
41.4730000000	74
41.5030000000	83
41.5330000000	85
41.5630000000	77
41.5930000000	71
41.6230000000	83
41.6530000000	72
41.6830000000	75
41.7130000000	77
41.7430000000	93
41.7730000000	89
41.8030000000	70
41.8330000000	77
41.8630000000	77
41.8930000000	96
41.9230000000	104
41.9530000000	131
41.9830000000	153
42.0130000000	194
42.0430000000	293
42.0730000000	401
42.1030000000	482
42.1330000000	458
42.1630000000	408
42.1930000000	324
42.2230000000	230
42.2530000000	183
42.2830000000	143
42.3130000000	118
42.3430000000	97
42.3730000000	94
42.4030000000	112
42.4330000000	98
42.4630000000	84
42.4930000000	84
42.5230000000	90
42.5530000000	107
42.5830000000	102
42.6130000000	78
42.6430000000	76
42.6730000000	94
42.7030000000	89
42.7330000000	78
42.7630000000	90
42.7930000000	93
42.8230000000	72
42.8530000000	73
42.8830000000	58
42.9130000000	72
42.9430000000	55
42.9730000000	77
43.0030000000	67
43.0330000000	58
43.0630000000	67
43.0930000000	74
43.1230000000	71
43.1530000000	75
43.1830000000	87
43.2130000000	79
43.2430000000	83
43.2730000000	67
43.3030000000	52
43.3330000000	69
43.3630000000	65
43.3930000000	76
43.4230000000	79
43.4530000000	69
43.4830000000	68
43.5130000000	72
43.5430000000	82
43.5730000000	73
43.6030000000	59
43.6330000000	66
43.6630000000	77
43.6930000000	65
43.7230000000	76
43.7530000000	96
43.7830000000	118
43.8130000000	118
43.8430000000	140
43.8730000000	194
43.9030000000	235
43.9330000000	302
43.9630000000	272
43.9930000000	275
44.0230000000	271
44.0530000000	235
44.0830000000	170
44.1130000000	137
44.1430000000	104
44.1730000000	75
44.2030000000	96
44.2330000000	71
44.2630000000	67
44.2930000000	78
44.3230000000	69
44.3530000000	68
44.3830000000	76
44.4130000000	78
44.4430000000	60
44.4730000000	66
44.5030000000	78
44.5330000000	86
44.5630000000	68
44.5930000000	67
44.6230000000	47
44.6530000000	63
44.6830000000	64
44.7130000000	56
44.7430000000	62
44.7730000000	68
44.8030000000	56
44.8330000000	66
44.8630000000	57
44.8930000000	77
44.9230000000	79
44.9530000000	77
44.9830000000	65
45.0130000000	70
45.0430000000	65
45.0730000000	72
45.1030000000	62
45.1330000000	67
45.1630000000	61
45.1930000000	79
45.2230000000	79
45.2530000000	83
45.2830000000	62
45.3130000000	64
45.3430000000	63
45.3730000000	65
45.4030000000	62
45.4330000000	60
45.4630000000	64
45.4930000000	74
45.5230000000	66
45.5530000000	64
45.5830000000	66
45.6130000000	67
45.6430000000	70
45.6730000000	64
45.7030000000	57
45.7330000000	67
45.7630000000	73
45.7930000000	64
45.8230000000	75
45.8530000000	53
45.8830000000	70
45.9130000000	68
45.9430000000	89
45.9730000000	73
46.0030000000	72
46.0330000000	70
46.0630000000	70
46.0930000000	62
46.1230000000	67
46.1530000000	73
46.1830000000	97
46.2130000000	79
46.2430000000	100
46.2730000000	93
46.3030000000	119
46.3330000000	142
46.3630000000	195
46.3930000000	276
46.4230000000	408
46.4530000000	551
46.4830000000	788
46.5130000000	925
46.5430000000	919
46.5730000000	864
46.6030000000	793
46.6330000000	678
46.6630000000	560
46.6930000000	528
46.7230000000	442
46.7530000000	537
46.7830000000	581
46.8130000000	729
46.8430000000	879
46.8730000000	858
46.9030000000	743
46.9330000000	622
46.9630000000	462
46.9930000000	350
47.0230000000	209
47.0530000000	164
47.0830000000	120
47.1130000000	116
47.1430000000	82
47.1730000000	71
47.2030000000	58
47.2330000000	67
47.2630000000	79
47.2930000000	72
47.3230000000	56
47.3530000000	68
47.3830000000	72
47.4130000000	65
47.4430000000	58
47.4730000000	66
47.5030000000	66
47.5330000000	83
47.5630000000	70
47.5930000000	63
47.6230000000	80
47.6530000000	56
47.6830000000	47
47.7130000000	61
47.7430000000	59
47.7730000000	50
47.8030000000	68
47.8330000000	59
47.8630000000	63
47.8930000000	60
47.9230000000	63
47.9530000000	52
47.9830000000	62
48.0130000000	58
48.0430000000	68
48.0730000000	61
48.1030000000	53
48.1330000000	58
48.1630000000	59
48.1930000000	64
48.2230000000	56
48.2530000000	56
48.2830000000	51
48.3130000000	62
48.3430000000	59
48.3730000000	59
48.4030000000	53
48.4330000000	47
48.4630000000	71
48.4930000000	61
48.5230000000	50
48.5530000000	59
48.5830000000	59
48.6130000000	52
48.6430000000	54
48.6730000000	54
48.7030000000	56
48.7330000000	66
48.7630000000	62
48.7930000000	50
48.8230000000	54
48.8530000000	48
48.8830000000	47
48.9130000000	52
48.9430000000	48
48.9730000000	58
49.0030000000	63
49.0330000000	52
49.0630000000	48
49.0930000000	40
49.1230000000	57
49.1530000000	59
49.1830000000	52
49.2130000000	54
49.2430000000	58
49.2730000000	42
49.3030000000	52
49.3330000000	56
49.3630000000	57
49.3930000000	50
49.4230000000	55
49.4530000000	55
49.4830000000	57
49.5130000000	51
49.5430000000	51
49.5730000000	61
49.6030000000	65
49.6330000000	60
49.6630000000	50
49.6930000000	53
49.7230000000	49
49.7530000000	49
49.7830000000	50
49.8130000000	53
49.8430000000	72
49.8730000000	41
49.9030000000	53
49.9330000000	47
49.9630000000	62
49.9930000000	50
50.0230000000	52
50.0530000000	48
50.0830000000	50
50.1130000000	58
50.1430000000	47
50.1730000000	50
50.2030000000	54
50.2330000000	52
50.2630000000	49
50.2930000000	55
50.3230000000	61
50.3530000000	65
50.3830000000	69
50.4130000000	67
50.4430000000	72
50.4730000000	87
50.5030000000	123
50.5330000000	119
50.5630000000	107
50.5930000000	96
50.6230000000	88
50.6530000000	76
50.6830000000	65
50.7130000000	47
50.7430000000	58
50.7730000000	62
50.8030000000	55
50.8330000000	47
50.8630000000	57
50.8930000000	54
50.9230000000	49
50.9530000000	57
50.9830000000	43
51.0130000000	46
51.0430000000	51
51.0730000000	39
51.1030000000	37
51.1330000000	38
51.1630000000	53
51.1930000000	51
51.2230000000	59
51.2530000000	66
51.2830000000	51
51.3130000000	42
51.3430000000	51
51.3730000000	46
51.4030000000	44
51.4330000000	45
51.4630000000	37
51.4930000000	46
51.5230000000	54
51.5530000000	49
51.5830000000	45
51.6130000000	50
51.6430000000	51
51.6730000000	42
51.7030000000	50
51.7330000000	54
51.7630000000	42
51.7930000000	40
51.8230000000	45
51.8530000000	44
51.8830000000	51
51.9130000000	53
51.9430000000	45
51.9730000000	46
52.0030000000	54
52.0330000000	34
52.0630000000	45
52.0930000000	34
52.1230000000	46
52.1530000000	48
52.1830000000	45
52.2130000000	40
52.2430000000	58
52.2730000000	57
52.3030000000	46
52.3330000000	47
52.3630000000	49
52.3930000000	58
52.4230000000	50
52.4530000000	48
52.4830000000	42
52.5130000000	39
52.5430000000	43
52.5730000000	57
52.6030000000	51
52.6330000000	43
52.6630000000	46
52.6930000000	53
52.7230000000	61
52.7530000000	47
52.7830000000	39
52.8130000000	41
52.8430000000	48
52.8730000000	43
52.9030000000	45
52.9330000000	45
52.9630000000	51
52.9930000000	51
53.0230000000	49
53.0530000000	54
53.0830000000	59
53.1130000000	53
53.1430000000	41
53.1730000000	39
53.2030000000	41
53.2330000000	51
53.2630000000	54
53.2930000000	42
53.3230000000	47
53.3530000000	47
53.3830000000	52
53.4130000000	48
53.4430000000	55
53.4730000000	53
53.5030000000	54
53.5330000000	71
53.5630000000	81
53.5930000000	104
53.6230000000	109
53.6530000000	114
53.6830000000	119
53.7130000000	107
53.7430000000	79
53.7730000000	93
53.8030000000	92
53.8330000000	67
53.8630000000	57
53.8930000000	54
53.9230000000	51
53.9530000000	49
53.9830000000	57
54.0130000000	51
54.0430000000	45
54.0730000000	48
54.1030000000	52
54.1330000000	55
54.1630000000	57
54.1930000000	45
54.2230000000	44
54.2530000000	41
54.2830000000	51
54.3130000000	44
54.3430000000	49
54.3730000000	49
54.4030000000	40
54.4330000000	31
54.4630000000	51
54.4930000000	55
54.5230000000	32
54.5530000000	37
54.5830000000	46
54.6130000000	50
54.6430000000	36
54.6730000000	46
54.7030000000	46
54.7330000000	30
54.7630000000	48
54.7930000000	47
54.8230000000	45
54.8530000000	42
54.8830000000	48
54.9130000000	42
54.9430000000	40
54.9730000000	53
55.0030000000	47
55.0330000000	48
55.0630000000	46
55.0930000000	45
55.1230000000	45
55.1530000000	45
55.1830000000	46
55.2130000000	45
55.2430000000	52
55.2730000000	50
55.3030000000	32
55.3330000000	41
55.3630000000	49
55.3930000000	44
55.4230000000	36
55.4530000000	51
55.4830000000	36
55.5130000000	39
55.5430000000	53
55.5730000000	47
55.6030000000	46
55.6330000000	44
55.6630000000	41
55.6930000000	46
55.7230000000	42
55.7530000000	48
55.7830000000	35
55.8130000000	49
55.8430000000	53
55.8730000000	45
55.9030000000	45
55.9330000000	44
55.9630000000	28
55.9930000000	43
56.0230000000	39
56.0530000000	34
56.0830000000	37
56.1130000000	40
56.1430000000	38
56.1730000000	34
56.2030000000	52
56.2330000000	38
56.2630000000	41
56.2930000000	38
56.3230000000	40
56.3530000000	52
56.3830000000	40
56.4130000000	47
56.4430000000	41
56.4730000000	39
56.5030000000	41
56.5330000000	49
56.5630000000	50
56.5930000000	48
56.6230000000	41
56.6530000000	47
56.6830000000	41
56.7130000000	40
56.7430000000	37
56.7730000000	43
56.8030000000	54
56.8330000000	54
56.8630000000	44
56.8930000000	51
56.9230000000	46
56.9530000000	35
56.9830000000	42
57.0130000000	50
57.0430000000	55
57.0730000000	47
57.1030000000	52
57.1330000000	43
57.1630000000	37
57.1930000000	49
57.2230000000	49
57.2530000000	47
57.2830000000	42
57.3130000000	48
57.3430000000	45
57.3730000000	44
57.4030000000	40
57.4330000000	41
57.4630000000	44
57.4930000000	42
57.5230000000	54
57.5530000000	37
57.5830000000	44
57.6130000000	47
57.6430000000	50
57.6730000000	34
57.7030000000	41
57.7330000000	48
57.7630000000	27
57.7930000000	45
57.8230000000	57
57.8530000000	42
57.8830000000	34
57.9130000000	31
57.9430000000	46
57.9730000000	46
58.0030000000	42
58.0330000000	49
58.0630000000	53
58.0930000000	43
58.1230000000	66
58.1530000000	68
58.1830000000	87
58.2130000000	67
58.2430000000	73
58.2730000000	86
58.3030000000	54
58.3330000000	61
58.3630000000	61
58.3930000000	44
58.4230000000	56
58.4530000000	50
58.4830000000	52
58.5130000000	39
58.5430000000	38
58.5730000000	39
58.6030000000	51
58.6330000000	44
58.6630000000	42
58.6930000000	48
58.7230000000	45
58.7530000000	43
58.7830000000	36
58.8130000000	43
58.8430000000	40
58.8730000000	46
58.9030000000	47
58.9330000000	47
58.9630000000	51
58.9930000000	35
59.0230000000	58
59.0530000000	64
59.0830000000	62
59.1130000000	66
59.1430000000	65
59.1730000000	78
59.2030000000	79
59.2330000000	67
59.2630000000	54
59.2930000000	65
59.3230000000	64
59.3530000000	57
59.3830000000	40
59.4130000000	42
59.4430000000	57
59.4730000000	52
59.5030000000	47
59.5330000000	41
59.5630000000	40
59.5930000000	50
59.6230000000	51
59.6530000000	44
59.6830000000	37
59.7130000000	45
59.7430000000	43
59.7730000000	38
59.8030000000	66
59.8330000000	49
59.8630000000	89
59.8930000000	97
59.9230000000	149
59.9530000000	153
59.9830000000	119
60.0130000000	111
60.0430000000	99
60.0730000000	115
60.1030000000	84
60.1330000000	78
60.1630000000	57
60.1930000000	55
60.2230000000	42
60.2530000000	44
60.2830000000	44
60.3130000000	49
60.3430000000	46
60.3730000000	54
60.4030000000	34
60.4330000000	48
60.4630000000	46
60.4930000000	71
60.5230000000	58
60.5530000000	45
60.5830000000	44
60.6130000000	45
60.6430000000	49
60.6730000000	47
60.7030000000	48
60.7330000000	45
60.7630000000	41
60.7930000000	43
60.8230000000	46
60.8530000000	40
60.8830000000	32
60.9130000000	48
60.9430000000	34
60.9730000000	43
61.0030000000	42
61.0330000000	36
61.0630000000	35
61.0930000000	48
61.1230000000	33
61.1530000000	45
61.1830000000	40
61.2130000000	32
61.2430000000	47
61.2730000000	36
61.3030000000	32
61.3330000000	41
61.3630000000	42
61.3930000000	38
61.4230000000	43
61.4530000000	42
61.4830000000	45
61.5130000000	41
61.5430000000	35
61.5730000000	37
61.6030000000	42
61.6330000000	39
61.6630000000	42
61.6930000000	48
61.7230000000	49
61.7530000000	56
61.7830000000	40
61.8130000000	42
61.8430000000	45
61.8730000000	45
61.9030000000	52
61.9330000000	68
61.9630000000	67
61.9930000000	84
62.0230000000	76
62.0530000000	75
62.0830000000	63
62.1130000000	51
62.1430000000	73
62.1730000000	59
62.2030000000	75
62.2330000000	57
62.2630000000	50
62.2930000000	57
62.3230000000	47
62.3530000000	49
62.3830000000	29
62.4130000000	30
62.4430000000	33
62.4730000000	43
62.5030000000	45
62.5330000000	45
62.5630000000	30
62.5930000000	27
62.6230000000	25
62.6530000000	31
62.6830000000	32
62.7130000000	38
62.7430000000	42
62.7730000000	40
62.8030000000	36
62.8330000000	50
62.8630000000	35
62.8930000000	30
62.9230000000	37
62.9530000000	38
62.9830000000	36
63.0130000000	44
63.0430000000	40
63.0730000000	38
63.1030000000	42
63.1330000000	44
63.1630000000	41
63.1930000000	40
63.2230000000	46
63.2530000000	40
63.2830000000	30
63.3130000000	39
63.3430000000	41
63.3730000000	44
63.4030000000	51
63.4330000000	35
63.4630000000	37
63.4930000000	36
63.5230000000	44
63.5530000000	43
63.5830000000	39
63.6130000000	45
63.6430000000	46
63.6730000000	32
63.7030000000	41
63.7330000000	38
63.7630000000	44
63.7930000000	28
63.8230000000	33
63.8530000000	31
63.8830000000	43
63.9130000000	42
63.9430000000	36
63.9730000000	38
64.0030000000	37
64.0330000000	40
64.0630000000	48
64.0930000000	36
64.1230000000	38
64.1530000000	47
64.1830000000	32
64.2130000000	49
64.2430000000	38
64.2730000000	36
64.3030000000	31
64.3330000000	36
64.3630000000	33
64.3930000000	29
64.4230000000	42
64.4530000000	44
64.4830000000	50
64.5130000000	41
64.5430000000	39
64.5730000000	40
64.6030000000	27
64.6330000000	37
64.6630000000	47
64.6930000000	39
64.7230000000	34
64.7530000000	31
64.7830000000	37
64.8130000000	42
64.8430000000	44
64.8730000000	49
64.9030000000	37
64.9330000000	32
64.9630000000	41
64.9930000000	42
65.0230000000	33
65.0530000000	32
65.0830000000	54
65.1130000000	43
65.1430000000	41
65.1730000000	46
65.2030000000	41
65.2330000000	42
65.2630000000	41
65.2930000000	41
65.3230000000	42
65.3530000000	48
65.3830000000	48
65.4130000000	36
65.4430000000	38
65.4730000000	42
65.5030000000	36
65.5330000000	39
65.5630000000	37
65.5930000000	39
65.6230000000	37
65.6530000000	41
65.6830000000	29
65.7130000000	33
65.7430000000	29
65.7730000000	41
65.8030000000	40
65.8330000000	37
65.8630000000	39
65.8930000000	34
65.9230000000	46
65.9530000000	47
65.9830000000	73
66.0130000000	71
66.0430000000	101
66.0730000000	88
66.1030000000	122
66.1330000000	132
66.1630000000	121
66.1930000000	107
66.2230000000	118
66.2530000000	93
66.2830000000	107
66.3130000000	98
66.3430000000	92
66.3730000000	88
66.4030000000	63
66.4330000000	65
66.4630000000	46
66.4930000000	39
66.5230000000	46
66.5530000000	46
66.5830000000	42
66.6130000000	42
66.6430000000	44
66.6730000000	40
66.7030000000	36
66.7330000000	51
66.7630000000	38
66.7930000000	35
66.8230000000	42
66.8530000000	56
66.8830000000	36
66.9130000000	39
66.9430000000	46
66.9730000000	46
67.0030000000	43
67.0330000000	32
67.0630000000	27
67.0930000000	37
67.1230000000	38
67.1530000000	41
67.1830000000	42
67.2130000000	38
67.2430000000	37
67.2730000000	30
67.3030000000	35
67.3330000000	38
67.3630000000	36
67.3930000000	37
67.4230000000	26
67.4530000000	31
67.4830000000	43
67.5130000000	41
67.5430000000	42
67.5730000000	42
67.6030000000	43
67.6330000000	37
67.6630000000	38
67.6930000000	37
67.7230000000	41
67.7530000000	44
67.7830000000	43
67.8130000000	45
67.8430000000	42
67.8730000000	41
67.9030000000	47
67.9330000000	37
67.9630000000	30
67.9930000000	42
68.0230000000	33
68.0530000000	29
68.0830000000	39
68.1130000000	56
68.1430000000	36
68.1730000000	36
68.2030000000	46
68.2330000000	34
68.2630000000	36
68.2930000000	43
68.3230000000	52
68.3530000000	44
68.3830000000	31
68.4130000000	30
68.4430000000	54
68.4730000000	50
68.5030000000	43
68.5330000000	33
68.5630000000	31
68.5930000000	53
68.6230000000	47
68.6530000000	39
68.6830000000	55
68.7130000000	51
68.7430000000	57
68.7730000000	52
68.8030000000	64
68.8330000000	65
68.8630000000	77
68.8930000000	70
68.9230000000	77
68.9530000000	74
68.9830000000	68
69.0130000000	74
69.0430000000	63
69.0730000000	71
69.1030000000	83
69.1330000000	81
69.1630000000	90
69.1930000000	90
69.2230000000	74
69.2530000000	88
69.2830000000	71
69.3130000000	61
69.3430000000	59
69.3730000000	71
69.4030000000	60
69.4330000000	57
69.4630000000	65
69.4930000000	50
69.5230000000	51
69.5530000000	39
69.5830000000	38
69.6130000000	47
69.6430000000	41
69.6730000000	47
69.7030000000	41
69.7330000000	44
69.7630000000	45
69.7930000000	38
69.8230000000	49
69.8530000000	45
69.8830000000	44
69.9130000000	44
69.9430000000	44
69.9730000000	34
70.0030000000	36
70.0330000000	34
70.0630000000	35
70.0930000000	33
70.1230000000	41
70.1530000000	39
70.1830000000	45
70.2130000000	36
70.2430000000	38
70.2730000000	41
70.3030000000	37
70.3330000000	43
70.3630000000	46
70.3930000000	45
70.4230000000	33
70.4530000000	41
70.4830000000	40
70.5130000000	45
70.5430000000	42
70.5730000000	40
70.6030000000	34
70.6330000000	42
70.6630000000	46
70.6930000000	39
70.7230000000	33
70.7530000000	35
70.7830000000	40
70.8130000000	34
70.8430000000	38
70.8730000000	44
70.9030000000	37
70.9330000000	44
70.9630000000	36
70.9930000000	39
71.0230000000	37
71.0530000000	33
71.0830000000	43
71.1130000000	32
71.1430000000	30
71.1730000000	47
71.2030000000	46
71.2330000000	55
71.2630000000	37
71.2930000000	36
71.3230000000	31
71.3530000000	37
71.3830000000	41
71.4130000000	38
71.4430000000	44
71.4730000000	45
71.5030000000	31
71.5330000000	38
71.5630000000	36
71.5930000000	50
71.6230000000	45
71.6530000000	44
71.6830000000	35
71.7130000000	34
71.7430000000	27
71.7730000000	41
71.8030000000	46
71.8330000000	53
71.8630000000	35
71.8930000000	52
71.9230000000	37
71.9530000000	43
71.9830000000	34
72.0130000000	38
72.0430000000	47
72.0730000000	34
72.1030000000	51
72.1330000000	45
72.1630000000	58
72.1930000000	59
72.2230000000	74
72.2530000000	84
72.2830000000	90
72.3130000000	89
72.3430000000	80
72.3730000000	66
72.4030000000	81
72.4330000000	59
72.4630000000	61
72.4930000000	68
72.5230000000	59
72.5530000000	63
72.5830000000	41
72.6130000000	35
72.6430000000	51
72.6730000000	45
72.7030000000	36
72.7330000000	44
72.7630000000	44
72.7930000000	46
72.8230000000	37
72.8530000000	43
72.8830000000	42
72.9130000000	40
72.9430000000	43
72.9730000000	33
73.0030000000	41
73.0330000000	36
73.0630000000	40
73.0930000000	48
73.1230000000	48
73.1530000000	34
73.1830000000	65
73.2130000000	42
73.2430000000	54
73.2730000000	63
73.3030000000	82
73.3330000000	81
73.3630000000	87
73.3930000000	99
73.4230000000	74
73.4530000000	86
73.4830000000	96
73.5130000000	114
73.5430000000	100
73.5730000000	84
73.6030000000	74
73.6330000000	65
73.6630000000	56
73.6930000000	44
73.7230000000	38
73.7530000000	36
73.7830000000	36
73.8130000000	47
73.8430000000	47
73.8730000000	20
73.9030000000	42
73.9330000000	28
73.9630000000	45
73.9930000000	42
74.0230000000	47
74.0530000000	47
74.0830000000	35
74.1130000000	32
74.1430000000	39
74.1730000000	43
74.2030000000	39
74.2330000000	37
74.2630000000	30
74.2930000000	39
74.3230000000	41
74.3530000000	37
74.3830000000	47
74.4130000000	37
74.4430000000	35
74.4730000000	40
74.5030000000	47
74.5330000000	41
74.5630000000	37
74.5930000000	42
74.6230000000	39
74.6530000000	46
74.6830000000	38
74.7130000000	33
74.7430000000	45
74.7730000000	45
74.8030000000	41
74.8330000000	58
74.8630000000	62
74.8930000000	68
74.9230000000	67
74.9530000000	104
74.9830000000	88
75.0130000000	81
75.0430000000	83
75.0730000000	78
75.1030000000	98
75.1330000000	99
75.1630000000	101
75.1930000000	103
75.2230000000	105
75.2530000000	94
75.2830000000	78
75.3130000000	80
75.3430000000	60
75.3730000000	51
75.4030000000	64
75.4330000000	70
75.4630000000	60
75.4930000000	56
75.5230000000	45
75.5530000000	46
75.5830000000	32
75.6130000000	47
75.6430000000	52
75.6730000000	44
75.7030000000	52
75.7330000000	49
75.7630000000	35
75.7930000000	34
75.8230000000	44
75.8530000000	43
75.8830000000	37
75.9130000000	40
75.9430000000	31
75.9730000000	38
76.0030000000	47
76.0330000000	36
76.0630000000	34
76.0930000000	41
76.1230000000	40
76.1530000000	38
76.1830000000	45
76.2130000000	37
76.2430000000	31
76.2730000000	44
76.3030000000	40
76.3330000000	33
76.3630000000	43
76.3930000000	42
76.4230000000	37
76.4530000000	33
76.4830000000	44
76.5130000000	36
76.5430000000	49
76.5730000000	39
76.6030000000	37
76.6330000000	33
76.6630000000	34
76.6930000000	39
76.7230000000	36
76.7530000000	40
76.7830000000	45
76.8130000000	59
76.8430000000	60
76.8730000000	43
76.9030000000	47
76.9330000000	48
76.9630000000	51
76.9930000000	56
77.0230000000	44
77.0530000000	44
77.0830000000	46
77.1130000000	40
77.1430000000	36
77.1730000000	31
77.2030000000	45
77.2330000000	32
77.2630000000	41
77.2930000000	52
77.3230000000	32
77.3530000000	42
77.3830000000	51
77.4130000000	31
77.4430000000	58
77.4730000000	48
77.5030000000	66
77.5330000000	62
77.5630000000	56
77.5930000000	59
77.6230000000	48
77.6530000000	50
77.6830000000	55
77.7130000000	49
77.7430000000	51
77.7730000000	46
77.8030000000	38
77.8330000000	33
77.8630000000	35
77.8930000000	35
77.9230000000	40
77.9530000000	28
77.9830000000	34
78.0130000000	48
78.0430000000	40
78.0730000000	32
78.1030000000	41
78.1330000000	41
78.1630000000	35
78.1930000000	34
78.2230000000	63
78.2530000000	32
78.2830000000	36
78.3130000000	37
78.3430000000	42
78.3730000000	51
78.4030000000	32
78.4330000000	39
78.4630000000	31
78.4930000000	39
78.5230000000	32
78.5530000000	46
78.5830000000	41
78.6130000000	44
78.6430000000	25
78.6730000000	35
78.7030000000	36
78.7330000000	29
78.7630000000	36
78.7930000000	28
78.8230000000	32
78.8530000000	46
78.8830000000	34
78.9130000000	40
78.9430000000	41
78.9730000000	40
79.0030000000	50
79.0330000000	43
79.0630000000	32
79.0930000000	33
79.1230000000	38
79.1530000000	33
79.1830000000	34
79.2130000000	41
79.2430000000	44
79.2730000000	35
79.3030000000	31
79.3330000000	39
79.3630000000	44
79.3930000000	35
79.4230000000	42
79.4530000000	39
79.4830000000	43
79.5130000000	40
79.5430000000	31
79.5730000000	28
79.6030000000	37
79.6330000000	40
79.6630000000	32
79.6930000000	33
79.7230000000	34
79.7530000000	44
79.7830000000	35
79.8130000000	35
79.8430000000	38
79.8730000000	45
79.9030000000	32
79.9330000000	39
79.9630000000	30
79.9930000000	26
80.0230000000	39
80.0530000000	36
80.0830000000	27
80.1130000000	38
80.1430000000	41
80.1730000000	39
80.2030000000	34
80.2330000000	29
80.2630000000	34
80.2930000000	33
80.3230000000	41
80.3530000000	35
80.3830000000	40
80.4130000000	37
80.4430000000	33
80.4730000000	43
80.5030000000	36
80.5330000000	51
80.5630000000	47
80.5930000000	31
80.6230000000	44
80.6530000000	44
80.6830000000	46
80.7130000000	45
80.7430000000	45
80.7730000000	46
80.8030000000	42
80.8330000000	38
80.8630000000	43
80.8930000000	30
80.9230000000	28
80.9530000000	55
80.9830000000	38
81.0130000000	36
81.0430000000	45
81.0730000000	44
81.1030000000	38
81.1330000000	38
81.1630000000	31
81.1930000000	38
81.2230000000	39
81.2530000000	41
81.2830000000	41
81.3130000000	42
81.3430000000	29
81.3730000000	41
81.4030000000	46
81.4330000000	56
81.4630000000	45
81.4930000000	57
81.5230000000	69
81.5530000000	68
81.5830000000	82
81.6130000000	63
81.6430000000	52
81.6730000000	50
81.7030000000	70
81.7330000000	69
81.7630000000	79
81.7930000000	64
81.8230000000	59
81.8530000000	65
81.8830000000	67
81.9130000000	57
81.9430000000	53
81.9730000000	57
82.0030000000	50
82.0330000000	56
82.0630000000	56
82.0930000000	59
82.1230000000	47
82.1530000000	40
82.1830000000	43
82.2130000000	43
82.2430000000	35
82.2730000000	32
82.3030000000	36
82.3330000000	43
82.3630000000	47
82.3930000000	43
82.4230000000	38
82.4530000000	36
82.4830000000	38
82.5130000000	34
82.5430000000	30
82.5730000000	40
82.6030000000	38
82.6330000000	26
82.6630000000	30
82.6930000000	46
82.7230000000	38
82.7530000000	28
82.7830000000	35
82.8130000000	40
82.8430000000	34
82.8730000000	27
82.9030000000	30
82.9330000000	29
82.9630000000	31
82.9930000000	29
83.0230000000	30
83.0530000000	39
83.0830000000	33
83.1130000000	42
83.1430000000	36
83.1730000000	33
83.2030000000	34
83.2330000000	26
83.2630000000	43
83.2930000000	46
83.3230000000	32
83.3530000000	40
83.3830000000	44
83.4130000000	38
83.4430000000	36
83.4730000000	46
83.5030000000	38
83.5330000000	43
83.5630000000	49
83.5930000000	55
83.6230000000	45
83.6530000000	41
83.6830000000	63
83.7130000000	59
83.7430000000	48
83.7730000000	42
83.8030000000	42
83.8330000000	53
83.8630000000	50
83.8930000000	60
83.9230000000	52
83.9530000000	51
83.9830000000	50
84.0130000000	40
84.0430000000	29
84.0730000000	47
84.1030000000	54
84.1330000000	31
84.1630000000	41
84.1930000000	35
84.2230000000	53
84.2530000000	44
84.2830000000	38
84.3130000000	47
84.3430000000	31
84.3730000000	45
84.4030000000	36
84.4330000000	30
84.4630000000	36
84.4930000000	40
84.5230000000	43
84.5530000000	41
84.5830000000	40
84.6130000000	47
84.6430000000	39
84.6730000000	40
84.7030000000	47
84.7330000000	46
84.7630000000	62
84.7930000000	75
84.8230000000	81
84.8530000000	80
84.8830000000	71
84.9130000000	81
84.9430000000	80
84.9730000000	64
85.0030000000	78
85.0330000000	62
85.0630000000	59
85.0930000000	68
85.1230000000	55
85.1530000000	55
85.1830000000	47
85.2130000000	40
85.2430000000	43
85.2730000000	46
85.3030000000	32
85.3330000000	33
85.3630000000	37
85.3930000000	41
85.4230000000	36
85.4530000000	31
85.4830000000	35
85.5130000000	33
85.5430000000	48
85.5730000000	30
85.6030000000	32
85.6330000000	33
85.6630000000	50
85.6930000000	42
85.7230000000	49
85.7530000000	50
85.7830000000	43
85.8130000000	39
85.8430000000	37
85.8730000000	40
85.9030000000	40
85.9330000000	34
85.9630000000	37
85.9930000000	44
86.0230000000	27
86.0530000000	43
86.0830000000	30
86.1130000000	31
86.1430000000	35
86.1730000000	36
86.2030000000	30
86.2330000000	28
86.2630000000	34
86.2930000000	33
86.3230000000	28
86.3530000000	37
86.3830000000	38
86.4130000000	33
86.4430000000	40
86.4730000000	45
86.5030000000	35
86.5330000000	37
86.5630000000	47
86.5930000000	25
86.6230000000	31
86.6530000000	44
86.6830000000	37
86.7130000000	36
86.7430000000	41
86.7730000000	46
86.8030000000	35
86.8330000000	28
86.8630000000	38
86.8930000000	45
86.9230000000	29
86.9530000000	33
86.9830000000	39
87.0130000000	29
87.0430000000	35
87.0730000000	36
87.1030000000	30
87.1330000000	35
87.1630000000	35
87.1930000000	31
87.2230000000	42
87.2530000000	47
87.2830000000	37
87.3130000000	31
87.3430000000	27
87.3730000000	37
87.4030000000	29
87.4330000000	26
87.4630000000	33
87.4930000000	32
87.5230000000	41
87.5530000000	41
87.5830000000	37
87.6130000000	38
87.6430000000	30
87.6730000000	44
87.7030000000	47
87.7330000000	34
87.7630000000	39
87.7930000000	31
87.8230000000	30
87.8530000000	35
87.8830000000	26
87.9130000000	32
87.9430000000	46
87.9730000000	37
88.0030000000	43
88.0330000000	35
88.0630000000	34
88.0930000000	23
88.1230000000	31
88.1530000000	36
88.1830000000	29
88.2130000000	28
88.2430000000	36
88.2730000000	32
88.3030000000	32
88.3330000000	40
88.3630000000	39
88.3930000000	31
88.4230000000	31
88.4530000000	23
88.4830000000	32
88.5130000000	32
88.5430000000	37
88.5730000000	24
88.6030000000	30
88.6330000000	31
88.6630000000	33
88.6930000000	35
88.7230000000	42
88.7530000000	44
88.7830000000	32
88.8130000000	42
88.8430000000	39
88.8730000000	37
88.9030000000	55
88.9330000000	43
88.9630000000	56
88.9930000000	40
89.0230000000	27
89.0530000000	47
89.0830000000	46
89.1130000000	46
89.1430000000	52
89.1730000000	44
89.2030000000	50
89.2330000000	51
89.2630000000	41
89.2930000000	37
89.3230000000	36
89.3530000000	37
89.3830000000	36
89.4130000000	37
89.4430000000	40
89.4730000000	40
89.5030000000	51
89.5330000000	39
89.5630000000	35
89.5930000000	44
89.6230000000	41
89.6530000000	37
89.6830000000	38
89.7130000000	42
89.7430000000	44
89.7730000000	47
89.8030000000	41
89.8330000000	47
89.8630000000	56
89.8930000000	36
89.9230000000	53
89.9530000000	37
89.9830000000	50
90.0130000000	37
90.0430000000	58
90.0730000000	41
90.1030000000	34
90.1330000000	43
90.1630000000	43
90.1930000000	36
90.2230000000	43
90.2530000000	39
90.2830000000	40
90.3130000000	47
90.3430000000	33
90.3730000000	54
90.4030000000	33
90.4330000000	29
90.4630000000	41
90.4930000000	47
90.5230000000	35
90.5530000000	48
90.5830000000	32
90.6130000000	36
90.6430000000	35
90.6730000000	41
90.7030000000	41
90.7330000000	38
90.7630000000	43
90.7930000000	48
90.8230000000	33
90.8530000000	34
90.8830000000	34
90.9130000000	32
90.9430000000	39
90.9730000000	35
91.0030000000	36
91.0330000000	41
91.0630000000	31
91.0930000000	37
91.1230000000	32
91.1530000000	38
91.1830000000	31
91.2130000000	32
91.2430000000	25
91.2730000000	30
91.3030000000	33
91.3330000000	37
91.3630000000	37
91.3930000000	45
91.4230000000	42
91.4530000000	39
91.4830000000	38
91.5130000000	39
91.5430000000	36
91.5730000000	36
91.6030000000	42
91.6330000000	44
91.6630000000	34
91.6930000000	29
91.7230000000	45
91.7530000000	40
91.7830000000	31
91.8130000000	33
91.8430000000	39
91.8730000000	43
91.9030000000	28
91.9330000000	44
91.9630000000	27
91.9930000000	36
92.0230000000	32
92.0530000000	35
92.0830000000	32
92.1130000000	34
92.1430000000	30
92.1730000000	43
92.2030000000	53
92.2330000000	34
92.2630000000	28
92.2930000000	37
92.3230000000	35
92.3530000000	46
92.3830000000	35
92.4130000000	40
92.4430000000	33
92.4730000000	29
92.5030000000	38
92.5330000000	33
92.5630000000	35
92.5930000000	24
92.6230000000	39
92.6530000000	35
92.6830000000	29
92.7130000000	47
92.7430000000	45
92.7730000000	45
92.8030000000	30
92.8330000000	48
92.8630000000	37
92.8930000000	43
92.9230000000	43
92.9530000000	35
92.9830000000	41
93.0130000000	39
93.0430000000	32
93.0730000000	46
93.1030000000	43
93.1330000000	34
93.1630000000	39
93.1930000000	38
93.2230000000	35
93.2530000000	41
93.2830000000	39
93.3130000000	29
93.3430000000	42
93.3730000000	36
93.4030000000	48
93.4330000000	37
93.4630000000	33
93.4930000000	40
93.5230000000	27
93.5530000000	38
93.5830000000	39
93.6130000000	35
93.6430000000	37
93.6730000000	40
93.7030000000	44
93.7330000000	32
93.7630000000	38
93.7930000000	36
93.8230000000	28
93.8530000000	32
93.8830000000	37
93.9130000000	51
93.9430000000	45
93.9730000000	37
94.0030000000	35
94.0330000000	38
94.0630000000	46
94.0930000000	47
94.1230000000	40
94.1530000000	51
94.1830000000	42
94.2130000000	54
94.2430000000	42
94.2730000000	51
94.3030000000	52
94.3330000000	60
94.3630000000	40
94.3930000000	51
94.4230000000	55
94.4530000000	63
94.4830000000	65
94.5130000000	65
94.5430000000	74
94.5730000000	70
94.6030000000	57
94.6330000000	52
94.6630000000	52
94.6930000000	50
94.7230000000	43
94.7530000000	41
94.7830000000	54
94.8130000000	40
94.8430000000	53
94.8730000000	44
94.9030000000	44
94.9330000000	45
94.9630000000	47
94.9930000000	43
95.0230000000	33
95.0530000000	40
95.0830000000	39
95.1130000000	43
95.1430000000	42
95.1730000000	36
95.2030000000	38
95.2330000000	37
95.2630000000	41
95.2930000000	36
95.3230000000	21
95.3530000000	41
95.3830000000	38
95.4130000000	33
95.4430000000	38
95.4730000000	38
95.5030000000	42
95.5330000000	37
95.5630000000	37
95.5930000000	36
95.6230000000	29
95.6530000000	36
95.6830000000	37
95.7130000000	40
95.7430000000	42
95.7730000000	47
95.8030000000	40
95.8330000000	32
95.8630000000	42
95.8930000000	40
95.9230000000	37
95.9530000000	41
95.9830000000	38
96.0130000000	39
96.0430000000	47
96.0730000000	46
96.1030000000	41
96.1330000000	46
96.1630000000	49
96.1930000000	37
96.2230000000	43
96.2530000000	40
96.2830000000	27
96.3130000000	43
96.3430000000	39
96.3730000000	29
96.4030000000	40
96.4330000000	37
96.4630000000	35
96.4930000000	31
96.5230000000	37
96.5530000000	40
96.5830000000	31
96.6130000000	36
96.6430000000	33
96.6730000000	38
96.7030000000	37
96.7330000000	37
96.7630000000	32
96.7930000000	39
96.8230000000	32
96.8530000000	42
96.8830000000	28
96.9130000000	35
96.9430000000	48
96.9730000000	41
97.0030000000	34
97.0330000000	43
97.0630000000	36
97.0930000000	35
97.1230000000	45
97.1530000000	52
97.1830000000	40
97.2130000000	51
97.2430000000	44
97.2730000000	34
97.3030000000	33
97.3330000000	36
97.3630000000	38
97.3930000000	45
97.4230000000	47
97.4530000000	41
97.4830000000	38
97.5130000000	38
97.5430000000	37
97.5730000000	27
97.6030000000	29
97.6330000000	32
97.6630000000	38
97.6930000000	36
97.7230000000	31
97.7530000000	39
97.7830000000	30
97.8130000000	39
97.8430000000	40
97.8730000000	30
97.9030000000	27
97.9330000000	44
97.9630000000	37
97.9930000000	32
98.0230000000	43
98.0530000000	36
98.0830000000	27
98.1130000000	37
98.1430000000	45
98.1730000000	34
98.2030000000	28
98.2330000000	33
98.2630000000	23
98.2930000000	38
98.3230000000	35
98.3530000000	41
98.3830000000	42
98.4130000000	34
98.4430000000	37
98.4730000000	37
98.5030000000	38
98.5330000000	37
98.5630000000	45
98.5930000000	45
98.6230000000	30
98.6530000000	31
98.6830000000	48
98.7130000000	45
98.7430000000	47
98.7730000000	49
98.8030000000	47
98.8330000000	49
98.8630000000	39
98.8930000000	37
98.9230000000	42
98.9530000000	37
98.9830000000	29
99.0130000000	38
99.0430000000	44
99.0730000000	30
99.1030000000	48
99.1330000000	36
99.1630000000	45
99.1930000000	33
99.2230000000	39
99.2530000000	23
99.2830000000	27
99.3130000000	41
99.3430000000	37
99.3730000000	24
99.4030000000	40
99.4330000000	30
99.4630000000	32
99.4930000000	36
99.5230000000	35
99.5530000000	35
99.5830000000	27
99.6130000000	40
99.6430000000	23
99.6730000000	37
99.7030000000	47
99.7330000000	34
99.7630000000	30
99.7930000000	37
99.8230000000	32
99.8530000000	44
99.8830000000	37
99.9130000000	40
99.9430000000	33
99.9730000000	36
100.0030000000	42
100.0330000000	36
100.0630000000	28
100.0930000000	38
100.1230000000	39
100.1530000000	26
100.1830000000	35
100.2130000000	44
100.2430000000	29
100.2730000000	45
100.3030000000	44
100.3330000000	29
100.3630000000	34
100.3930000000	31
100.4230000000	35
100.4530000000	25
100.4830000000	31
100.5130000000	39
100.5430000000	40
100.5730000000	44
100.6030000000	36
100.6330000000	36
100.6630000000	34
100.6930000000	33
100.7230000000	27
100.7530000000	35
100.7830000000	29
100.8130000000	37
100.8430000000	42
100.8730000000	44
100.9030000000	34
100.9330000000	43
100.9630000000	35
100.9930000000	30
101.0230000000	29
101.0530000000	33
101.0830000000	47
101.1130000000	42
101.1430000000	35
101.1730000000	40
101.2030000000	38
101.2330000000	38
101.2630000000	27
101.2930000000	39
101.3230000000	37
101.3530000000	32
101.3830000000	39
101.4130000000	42
101.4430000000	32
101.4730000000	42
101.5030000000	35
101.5330000000	26
101.5630000000	27
101.5930000000	32
101.6230000000	34
101.6530000000	39
101.6830000000	39
101.7130000000	24
101.7430000000	32
101.7730000000	39
101.8030000000	35
101.8330000000	26
101.8630000000	32
101.8930000000	45
101.9230000000	34
101.9530000000	52
101.9830000000	37
102.0130000000	30
102.0430000000	32
102.0730000000	37
102.1030000000	34
102.1330000000	38
102.1630000000	36
102.1930000000	27
102.2230000000	29
102.2530000000	38
102.2830000000	36
102.3130000000	43
102.3430000000	40
102.3730000000	27
102.4030000000	48
102.4330000000	35
102.4630000000	37
102.4930000000	27
102.5230000000	33
102.5530000000	39
102.5830000000	36
102.6130000000	41
102.6430000000	42
102.6730000000	31
102.7030000000	33
102.7330000000	39
102.7630000000	39
102.7930000000	43
102.8230000000	39
102.8530000000	32
102.8830000000	41
102.9130000000	40
102.9430000000	32
102.9730000000	38
103.0030000000	39
103.0330000000	38
103.0630000000	40
103.0930000000	42
103.1230000000	34
103.1530000000	39
103.1830000000	28
103.2130000000	29
103.2430000000	41
103.2730000000	36
103.3030000000	36
103.3330000000	37
103.3630000000	25
103.3930000000	38
103.4230000000	42
103.4530000000	37
103.4830000000	24
103.5130000000	34
103.5430000000	28
103.5730000000	39
103.6030000000	38
103.6330000000	38
103.6630000000	42
103.6930000000	39
103.7230000000	38
103.7530000000	30
103.7830000000	30
103.8130000000	30
103.8430000000	32
103.8730000000	36
103.9030000000	45
103.9330000000	31
103.9630000000	38
103.9930000000	48
104.0230000000	49
104.0530000000	40
104.0830000000	32
104.1130000000	40
104.1430000000	40
104.1730000000	47
104.2030000000	43
104.2330000000	43
104.2630000000	33
104.2930000000	33
104.3230000000	37
104.3530000000	41
104.3830000000	56
104.4130000000	53
104.4430000000	50
104.4730000000	48
104.5030000000	40
104.5330000000	34
104.5630000000	33
104.5930000000	39
104.6230000000	35
104.6530000000	47
104.6830000000	55
104.7130000000	36
104.7430000000	35
104.7730000000	34
104.8030000000	31
104.8330000000	30
104.8630000000	31
104.8930000000	42
104.9230000000	35
104.9530000000	36
104.9830000000	43
105.0130000000	41
105.0430000000	39
105.0730000000	45
105.1030000000	39
105.1330000000	38
105.1630000000	42
105.1930000000	33
105.2230000000	32
105.2530000000	40
105.2830000000	37
105.3130000000	37
105.3430000000	41
105.3730000000	46
105.4030000000	33
105.4330000000	41
105.4630000000	41
105.4930000000	41
105.5230000000	46
105.5530000000	31
105.5830000000	36
105.6130000000	43
105.6430000000	29
105.6730000000	36
105.7030000000	36
105.7330000000	37
105.7630000000	39
105.7930000000	34
105.8230000000	32
105.8530000000	33
105.8830000000	45
105.9130000000	37
105.9430000000	34
105.9730000000	29
106.0030000000	31
106.0330000000	41
106.0630000000	25
106.0930000000	30
106.1230000000	36
106.1530000000	34
106.1830000000	39
106.2130000000	32
106.2430000000	37
106.2730000000	35
106.3030000000	38
106.3330000000	41
106.3630000000	31
106.3930000000	45
106.4230000000	41
106.4530000000	37
106.4830000000	42
106.5130000000	39
106.5430000000	37
106.5730000000	34
106.6030000000	37
106.6330000000	40
106.6630000000	30
106.6930000000	31
106.7230000000	28
106.7530000000	37
106.7830000000	33
106.8130000000	36
106.8430000000	37
106.8730000000	28
106.9030000000	28
106.9330000000	23
106.9630000000	33
106.9930000000	34
107.0230000000	32
107.0530000000	36
107.0830000000	40
107.1130000000	37
107.1430000000	38
107.1730000000	38
107.2030000000	36
107.2330000000	28
107.2630000000	36
107.2930000000	34
107.3230000000	32
107.3530000000	42
107.3830000000	39
107.4130000000	38
107.4430000000	30
107.4730000000	30
107.5030000000	32
107.5330000000	36
107.5630000000	31
107.5930000000	27
107.6230000000	30
107.6530000000	36
107.6830000000	37
107.7130000000	33
107.7430000000	35
107.7730000000	43
107.8030000000	33
107.8330000000	31
107.8630000000	32
107.8930000000	28
107.9230000000	33
107.9530000000	33
107.9830000000	35
108.0130000000	41
108.0430000000	41
108.0730000000	42
108.1030000000	44
108.1330000000	31
108.1630000000	35
108.1930000000	41
108.2230000000	46
108.2530000000	36
108.2830000000	31
108.3130000000	37
108.3430000000	34
108.3730000000	47
108.4030000000	53
108.4330000000	28
108.4630000000	41
108.4930000000	50
108.5230000000	35
108.5530000000	38
108.5830000000	43
108.6130000000	42
108.6430000000	40
108.6730000000	61
108.7030000000	49
108.7330000000	66
108.7630000000	65
108.7930000000	50
108.8230000000	37
108.8530000000	40
108.8830000000	54
108.9130000000	45
108.9430000000	47
108.9730000000	47
109.0030000000	58
109.0330000000	68
109.0630000000	57
109.0930000000	68
109.1230000000	58
109.1530000000	62
109.1830000000	51
109.2130000000	44
109.2430000000	43
109.2730000000	55
109.3030000000	35
109.3330000000	42
109.3630000000	57
109.3930000000	40
109.4230000000	43
109.4530000000	38
109.4830000000	48
109.5130000000	50
109.5430000000	32
109.5730000000	33
109.6030000000	40
109.6330000000	30
109.6630000000	37
109.6930000000	34
109.7230000000	32
109.7530000000	30
109.7830000000	38
109.8130000000	41
109.8430000000	34
109.8730000000	34
109.9030000000	27
109.9330000000	45
109.9630000000	33
109.9930000000	33
110.0230000000	48
110.0530000000	38
110.0830000000	41
110.1130000000	25
110.1430000000	38
110.1730000000	39
110.2030000000	31
110.2330000000	33
110.2630000000	35
110.2930000000	32
110.3230000000	32
110.3530000000	42
110.3830000000	39
110.4130000000	32
110.4430000000	36
110.4730000000	40
110.5030000000	39
110.5330000000	29
110.5630000000	40
110.5930000000	36
110.6230000000	38
110.6530000000	40
110.6830000000	46
110.7130000000	41
110.7430000000	38
110.7730000000	42
110.8030000000	48
110.8330000000	46
110.8630000000	38
110.8930000000	38
110.9230000000	45
110.9530000000	38
110.9830000000	38
111.0130000000	46
111.0430000000	43
111.0730000000	45
111.1030000000	40
111.1330000000	44
111.1630000000	48
111.1930000000	43
111.2230000000	44
111.2530000000	41
111.2830000000	48
111.3130000000	39
111.3430000000	35
111.3730000000	41
111.4030000000	44
111.4330000000	38
111.4630000000	42
111.4930000000	33
111.5230000000	37
111.5530000000	33
111.5830000000	46
111.6130000000	36
111.6430000000	44
111.6730000000	43
111.7030000000	42
111.7330000000	33
111.7630000000	31
111.7930000000	40
111.8230000000	40
111.8530000000	40
111.8830000000	27
111.9130000000	33
111.9430000000	41
111.9730000000	39
112.0030000000	34
112.0330000000	29
112.0630000000	36
112.0930000000	45
112.1230000000	30
112.1530000000	41
112.1830000000	29
112.2130000000	28
112.2430000000	31
112.2730000000	42
112.3030000000	42
112.3330000000	51
112.3630000000	42
112.3930000000	48
112.4230000000	39
112.4530000000	29
112.4830000000	35
112.5130000000	31
112.5430000000	28
112.5730000000	33
112.6030000000	28
112.6330000000	43
112.6630000000	45
112.6930000000	35
112.7230000000	33
112.7530000000	40
112.7830000000	42
112.8130000000	32
112.8430000000	28
112.8730000000	44
112.9030000000	48
112.9330000000	45
112.9630000000	30
112.9930000000	30
113.0230000000	44
113.0530000000	53
113.0830000000	39
113.1130000000	37
113.1430000000	44
113.1730000000	37
113.2030000000	40
113.2330000000	46
113.2630000000	35
113.2930000000	34
113.3230000000	34
113.3530000000	36
113.3830000000	42
113.4130000000	37
113.4430000000	29
113.4730000000	34
113.5030000000	37
113.5330000000	43
113.5630000000	34
113.5930000000	40
113.6230000000	37
113.6530000000	22
113.6830000000	32
113.7130000000	45
113.7430000000	44
113.7730000000	36
113.8030000000	33
113.8330000000	40
113.8630000000	42
113.8930000000	37
113.9230000000	36
113.9530000000	37
113.9830000000	33
114.0130000000	39
114.0430000000	38
114.0730000000	31
114.1030000000	45
114.1330000000	36
114.1630000000	43
114.1930000000	46
114.2230000000	32
114.2530000000	35
114.2830000000	42
114.3130000000	36
114.3430000000	43
114.3730000000	31
114.4030000000	36
114.4330000000	39
114.4630000000	1
114.4930000000	1
114.5230000000	1
114.5530000000	1
114.5830000000	1
