0.3130000000	1
0.3430000000	1
0.3730000000	1
0.4030000000	1
0.4330000000	2
0.4630000000	1
0.4930000000	1
0.5230000000	1
0.5530000000	1
0.5830000000	1
0.6130000000	2
0.6430000000	1
0.6730000000	1
0.7030000000	1
0.7330000000	1
0.7630000000	1
0.7930000000	1
0.8230000000	1
0.8530000000	1
0.8830000000	1
0.9130000000	1
0.9430000000	1
0.9730000000	1
1.0030000000	2
1.0330000000	2
1.0630000000	1
1.0930000000	1
1.1230000000	1
1.1530000000	2
1.1830000000	1
1.2130000000	1
1.2430000000	1
1.2730000000	3
1.3030000000	2
1.3330000000	2
1.3630000000	1
1.3930000000	1
1.4230000000	1
1.4530000000	1
1.4830000000	1
1.5130000000	1
1.5430000000	1
1.5730000000	1
1.6030000000	1
1.6330000000	1
1.6630000000	1
1.6930000000	1
1.7230000000	2
1.7530000000	1
1.7830000000	2
1.8130000000	1
1.8430000000	1
1.8730000000	3
1.9030000000	2
1.9330000000	1
1.9630000000	2
1.9930000000	1
2.0230000000	1
2.0530000000	1
2.0830000000	1
2.1130000000	1
2.1430000000	1
2.1730000000	1
2.2030000000	1
2.2330000000	1
2.2630000000	1
2.2930000000	1
2.3230000000	2
2.3530000000	2
2.3830000000	1
2.4130000000	2
2.4430000000	2
2.4730000000	1
2.5030000000	1
2.5330000000	2
2.5630000000	2
2.5930000000	1
2.6230000000	1
2.6530000000	2
2.6830000000	3
2.7130000000	1
2.7430000000	1
2.7730000000	1
2.8030000000	1
2.8330000000	2
2.8630000000	3
2.8930000000	2
2.9230000000	1
2.9530000000	3
2.9830000000	1
3.0130000000	3
3.0430000000	1
3.0730000000	2
3.1030000000	3
3.1330000000	2
3.1630000000	2
3.1930000000	2
3.2230000000	2
3.2530000000	4
3.2830000000	2
3.3130000000	2
3.3430000000	3
3.3730000000	1
3.4030000000	2
3.4330000000	2
3.4630000000	2
3.4930000000	1
3.5230000000	1
3.5530000000	3
3.5830000000	1
3.6130000000	1
3.6430000000	2
3.6730000000	3
3.7030000000	2
3.7330000000	3
3.7630000000	3
3.7930000000	2
3.8230000000	4
3.8530000000	3
3.8830000000	2
3.9130000000	1
3.9430000000	2
3.9730000000	4
4.0030000000	3
4.0330000000	4
4.0630000000	4
4.0930000000	5
4.1230000000	6
4.1530000000	3
4.1830000000	4
4.2130000000	3
4.2430000000	6
4.2730000000	4
4.3030000000	2
4.3330000000	3
4.3630000000	6
4.3930000000	5
4.4230000000	7
4.4530000000	8
4.4830000000	12
4.5130000000	17
4.5430000000	37
4.5730000000	45
4.6030000000	69
4.6330000000	93
4.6630000000	113
4.6930000000	130
4.7230000000	123
4.7530000000	141
4.7830000000	131
4.8130000000	145
4.8430000000	127
4.8730000000	131
4.9030000000	142
4.9330000000	133
4.9630000000	146
4.9930000000	155
5.0230000000	129
5.0530000000	133
5.0830000000	148
5.1130000000	140
5.1430000000	136
5.1730000000	134
5.2030000000	144
5.2330000000	139
5.2630000000	142
5.2930000000	148
5.3230000000	141
5.3530000000	179
5.3830000000	139
5.4130000000	171
5.4430000000	144
5.4730000000	163
5.5030000000	145
5.5330000000	141
5.5630000000	130
5.5930000000	150
5.6230000000	168
5.6530000000	152
5.6830000000	137
5.7130000000	161
5.7430000000	146
5.7730000000	137
5.8030000000	148
5.8330000000	144
5.8630000000	115
5.8930000000	170
5.9230000000	159
5.9530000000	131
5.9830000000	155
6.0130000000	158
6.0430000000	122
6.0730000000	130
6.1030000000	166
6.1330000000	142
6.1630000000	167
6.1930000000	136
6.2230000000	151
6.2530000000	143
6.2830000000	155
6.3130000000	130
6.3430000000	132
6.3730000000	138
6.4030000000	142
6.4330000000	183
6.4630000000	149
6.4930000000	148
6.5230000000	148
6.5530000000	141
6.5830000000	132
6.6130000000	160
6.6430000000	138
6.6730000000	145
6.7030000000	131
6.7330000000	130
6.7630000000	136
6.7930000000	147
6.8230000000	156
6.8530000000	142
6.8830000000	137
6.9130000000	153
6.9430000000	144
6.9730000000	145
7.0030000000	135
7.0330000000	142
7.0630000000	153
7.0930000000	139
7.1230000000	162
7.1530000000	154
7.1830000000	151
7.2130000000	139
7.2430000000	145
7.2730000000	154
7.3030000000	141
7.3330000000	134
7.3630000000	145
7.3930000000	140
7.4230000000	137
7.4530000000	137
7.4830000000	147
7.5130000000	157
7.5430000000	142
7.5730000000	123
7.6030000000	134
7.6330000000	155
7.6630000000	147
7.6930000000	141
7.7230000000	148
7.7530000000	157
7.7830000000	167
7.8130000000	154
7.8430000000	138
7.8730000000	136
7.9030000000	134
7.9330000000	141
7.9630000000	152
7.9930000000	146
8.0230000000	136
8.0530000000	156
8.0830000000	144
8.1130000000	162
8.1430000000	122
8.1730000000	139
8.2030000000	137
8.2330000000	131
8.2630000000	146
8.2930000000	151
8.3230000000	162
8.3530000000	146
8.3830000000	142
8.4130000000	157
8.4430000000	154
8.4730000000	137
8.5030000000	161
8.5330000000	154
8.5630000000	152
8.5930000000	154
8.6230000000	140
8.6530000000	140
8.6830000000	120
8.7130000000	130
8.7430000000	154
8.7730000000	150
8.8030000000	125
8.8330000000	133
8.8630000000	156
8.8930000000	174
8.9230000000	150
8.9530000000	134
8.9830000000	148
9.0130000000	155
9.0430000000	142
9.0730000000	153
9.1030000000	136
9.1330000000	142
9.1630000000	165
9.1930000000	155
9.2230000000	156
9.2530000000	151
9.2830000000	157
9.3130000000	140
9.3430000000	118
9.3730000000	131
9.4030000000	160
9.4330000000	136
9.4630000000	137
9.4930000000	155
9.5230000000	158
9.5530000000	140
9.5830000000	154
9.6130000000	136
9.6430000000	134
9.6730000000	146
9.7030000000	152
9.7330000000	160
9.7630000000	158
9.7930000000	153
9.8230000000	151
9.8530000000	143
9.8830000000	138
9.9130000000	144
9.9430000000	165
9.9730000000	150
10.0030000000	152
10.0330000000	124
10.0630000000	172
10.0930000000	166
10.1230000000	158
10.1530000000	160
10.1830000000	131
10.2130000000	144
10.2430000000	141
10.2730000000	137
10.3030000000	164
10.3330000000	128
10.3630000000	144
10.3930000000	141
10.4230000000	132
10.4530000000	145
10.4830000000	148
10.5130000000	140
10.5430000000	131
10.5730000000	126
10.6030000000	152
10.6330000000	169
10.6630000000	150
10.6930000000	145
10.7230000000	142
10.7530000000	150
10.7830000000	141
10.8130000000	143
10.8430000000	142
10.8730000000	147
10.9030000000	133
10.9330000000	145
10.9630000000	170
10.9930000000	153
11.0230000000	134
11.0530000000	135
11.0830000000	158
11.1130000000	150
11.1430000000	136
11.1730000000	126
11.2030000000	160
11.2330000000	171
11.2630000000	153
11.2930000000	148
11.3230000000	131
11.3530000000	150
11.3830000000	149
11.4130000000	152
11.4430000000	145
11.4730000000	143
11.5030000000	147
11.5330000000	153
11.5630000000	177
11.5930000000	153
11.6230000000	127
11.6530000000	157
11.6830000000	172
11.7130000000	160
11.7430000000	141
11.7730000000	141
11.8030000000	151
11.8330000000	144
11.8630000000	165
11.8930000000	153
11.9230000000	145
11.9530000000	154
11.9830000000	160
12.0130000000	158
12.0430000000	139
12.0730000000	131
12.1030000000	152
12.1330000000	167
12.1630000000	143
12.1930000000	150
12.2230000000	165
12.2530000000	152
12.2830000000	143
12.3130000000	141
12.3430000000	159
12.3730000000	149
12.4030000000	138
12.4330000000	125
12.4630000000	133
12.4930000000	148
12.5230000000	148
12.5530000000	145
12.5830000000	134
12.6130000000	143
12.6430000000	152
12.6730000000	147
12.7030000000	159
12.7330000000	156
12.7630000000	151
12.7930000000	131
12.8230000000	154
12.8530000000	175
12.8830000000	150
12.9130000000	148
12.9430000000	155
12.9730000000	139
13.0030000000	145
13.0330000000	147
13.0630000000	127
13.0930000000	126
13.1230000000	142
13.1530000000	158
13.1830000000	142
13.2130000000	151
13.2430000000	154
13.2730000000	152
13.3030000000	157
13.3330000000	143
13.3630000000	150
13.3930000000	163
13.4230000000	117
13.4530000000	123
13.4830000000	143
13.5130000000	138
13.5430000000	164
13.5730000000	169
13.6030000000	155
13.6330000000	134
13.6630000000	139
13.6930000000	146
13.7230000000	157
13.7530000000	150
13.7830000000	131
13.8130000000	139
13.8430000000	125
13.8730000000	157
13.9030000000	157
13.9330000000	150
13.9630000000	137
13.9930000000	141
14.0230000000	147
14.0530000000	161
14.0830000000	156
14.1130000000	126
14.1430000000	142
14.1730000000	146
14.2030000000	160
14.2330000000	126
14.2630000000	150
14.2930000000	165
14.3230000000	135
14.3530000000	155
14.3830000000	139
14.4130000000	148
14.4430000000	131
14.4730000000	155
14.5030000000	147
14.5330000000	165
14.5630000000	114
14.5930000000	153
14.6230000000	162
14.6530000000	167
14.6830000000	149
14.7130000000	163
14.7430000000	153
14.7730000000	143
14.8030000000	147
14.8330000000	149
14.8630000000	147
14.8930000000	139
14.9230000000	168
14.9530000000	156
14.9830000000	156
15.0130000000	146
15.0430000000	143
15.0730000000	150
15.1030000000	169
15.1330000000	139
15.1630000000	183
15.1930000000	164
15.2230000000	159
15.2530000000	156
15.2830000000	146
15.3130000000	162
15.3430000000	148
15.3730000000	161
15.4030000000	163
15.4330000000	165
15.4630000000	177
15.4930000000	140
15.5230000000	148
15.5530000000	151
15.5830000000	144
15.6130000000	152
15.6430000000	154
15.6730000000	161
15.7030000000	151
15.7330000000	160
15.7630000000	135
15.7930000000	147
15.8230000000	155
15.8530000000	152
15.8830000000	141
15.9130000000	143
15.9430000000	163
15.9730000000	149
16.0030000000	144
16.0330000000	156
16.0630000000	135
16.0930000000	142
16.1230000000	151
16.1530000000	123
16.1830000000	143
16.2130000000	100
16.2430000000	150
16.2730000000	148
16.3030000000	133
16.3330000000	165
16.3630000000	152
16.3930000000	146
16.4230000000	125
16.4530000000	158
16.4830000000	136
16.5130000000	136
16.5430000000	164
16.5730000000	142
16.6030000000	145
16.6330000000	168
16.6630000000	134
16.6930000000	154
16.7230000000	140
16.7530000000	156
16.7830000000	133
16.8130000000	161
16.8430000000	172
16.8730000000	142
16.9030000000	141
16.9330000000	163
16.9630000000	141
16.9930000000	154
17.0230000000	153
17.0530000000	145
17.0830000000	152
17.1130000000	155
17.1430000000	184
17.1730000000	168
17.2030000000	150
17.2330000000	148
17.2630000000	158
17.2930000000	153
17.3230000000	126
17.3530000000	145
17.3830000000	159
17.4130000000	149
17.4430000000	142
17.4730000000	144
17.5030000000	141
17.5330000000	147
17.5630000000	147
17.5930000000	164
17.6230000000	161
17.6530000000	149
17.6830000000	145
17.7130000000	120
17.7430000000	134
17.7730000000	164
17.8030000000	156
17.8330000000	148
17.8630000000	154
17.8930000000	155
17.9230000000	145
17.9530000000	139
17.9830000000	153
18.0130000000	157
18.0430000000	146
18.0730000000	144
18.1030000000	146
18.1330000000	139
18.1630000000	146
18.1930000000	146
18.2230000000	138
18.2530000000	134
18.2830000000	130
18.3130000000	165
18.3430000000	144
18.3730000000	137
18.4030000000	135
18.4330000000	157
18.4630000000	166
18.4930000000	152
18.5230000000	137
18.5530000000	145
18.5830000000	138
18.6130000000	149
18.6430000000	127
18.6730000000	154
18.7030000000	153
18.7330000000	130
18.7630000000	128
18.7930000000	148
18.8230000000	152
18.8530000000	146
18.8830000000	161
18.9130000000	156
18.9430000000	158
18.9730000000	117
19.0030000000	148
19.0330000000	140
19.0630000000	143
19.0930000000	145
19.1230000000	163
19.1530000000	152
19.1830000000	142
19.2130000000	173
19.2430000000	121
19.2730000000	160
19.3030000000	152
19.3330000000	164
19.3630000000	152
19.3930000000	166
19.4230000000	157
19.4530000000	212
19.4830000000	253
19.5130000000	250
19.5430000000	295
19.5730000000	374
19.6030000000	375
19.6330000000	351
19.6630000000	308
19.6930000000	230
19.7230000000	193
19.7530000000	189
19.7830000000	145
19.8130000000	143
19.8430000000	166
19.8730000000	162
19.9030000000	157
19.9330000000	151
19.9630000000	142
19.9930000000	123
20.0230000000	164
20.0530000000	156
20.0830000000	149
20.1130000000	143
20.1430000000	139
20.1730000000	159
20.2030000000	137
20.2330000000	139
20.2630000000	155
20.2930000000	152
20.3230000000	170
20.3530000000	153
20.3830000000	141
20.4130000000	152
20.4430000000	141
20.4730000000	155
20.5030000000	136
20.5330000000	120
20.5630000000	141
20.5930000000	139
20.6230000000	168
20.6530000000	140
20.6830000000	161
20.7130000000	166
20.7430000000	154
20.7730000000	158
20.8030000000	154
20.8330000000	136
20.8630000000	153
20.8930000000	156
20.9230000000	137
20.9530000000	147
20.9830000000	138
21.0130000000	167
21.0430000000	156
21.0730000000	144
21.1030000000	148
21.1330000000	155
21.1630000000	139
21.1930000000	163
21.2230000000	148
21.2530000000	143
21.2830000000	168
21.3130000000	163
21.3430000000	149
21.3730000000	148
21.4030000000	150
21.4330000000	145
21.4630000000	164
21.4930000000	160
21.5230000000	153
21.5530000000	158
21.5830000000	175
21.6130000000	151
21.6430000000	148
21.6730000000	174
21.7030000000	147
21.7330000000	156
21.7630000000	172
21.7930000000	165
21.8230000000	172
21.8530000000	186
21.8830000000	210
21.9130000000	170
21.9430000000	164
21.9730000000	167
22.0030000000	154
22.0330000000	142
22.0630000000	146
22.0930000000	169
22.1230000000	167
22.1530000000	155
22.1830000000	167
22.2130000000	158
22.2430000000	161
22.2730000000	179
22.3030000000	160
22.3330000000	159
22.3630000000	164
22.3930000000	167
22.4230000000	174
22.4530000000	166
22.4830000000	175
22.5130000000	171
22.5430000000	166
22.5730000000	177
22.6030000000	178
22.6330000000	174
22.6630000000	175
22.6930000000	197
22.7230000000	223
22.7530000000	235
22.7830000000	229
22.8130000000	177
22.8430000000	202
22.8730000000	156
22.9030000000	157
22.9330000000	173
22.9630000000	179
22.9930000000	177
23.0230000000	183
23.0530000000	167
23.0830000000	146
23.1130000000	169
23.1430000000	168
23.1730000000	167
23.2030000000	157
23.2330000000	157
23.2630000000	176
23.2930000000	170
23.3230000000	166
23.3530000000	165
23.3830000000	164
23.4130000000	169
23.4430000000	166
23.4730000000	165
23.5030000000	169
23.5330000000	167
23.5630000000	169
23.5930000000	149
23.6230000000	167
23.6530000000	171
23.6830000000	159
23.7130000000	211
23.7430000000	154
23.7730000000	156
23.8030000000	158
23.8330000000	175
23.8630000000	155
23.8930000000	183
23.9230000000	178
23.9530000000	170
23.9830000000	156
24.0130000000	176
24.0430000000	170
24.0730000000	153
24.1030000000	166
24.1330000000	150
24.1630000000	144
24.1930000000	155
24.2230000000	167
24.2530000000	136
24.2830000000	169
24.3130000000	186
24.3430000000	166
24.3730000000	164
24.4030000000	166
24.4330000000	171
24.4630000000	158
24.4930000000	146
24.5230000000	157
24.5530000000	165
24.5830000000	172
24.6130000000	169
24.6430000000	154
24.6730000000	193
24.7030000000	155
24.7330000000	145
24.7630000000	166
24.7930000000	155
24.8230000000	170
24.8530000000	166
24.8830000000	172
24.9130000000	162
24.9430000000	162
24.9730000000	178
25.0030000000	167
25.0330000000	170
25.0630000000	200
25.0930000000	179
25.1230000000	161
25.1530000000	158
25.1830000000	157
25.2130000000	172
25.2430000000	140
25.2730000000	154
25.3030000000	184
25.3330000000	194
25.3630000000	174
25.3930000000	161
25.4230000000	174
25.4530000000	161
25.4830000000	156
25.5130000000	174
25.5430000000	172
25.5730000000	181
25.6030000000	176
25.6330000000	181
25.6630000000	159
25.6930000000	184
25.7230000000	188
25.7530000000	185
25.7830000000	174
25.8130000000	200
25.8430000000	145
25.8730000000	151
25.9030000000	144
25.9330000000	163
25.9630000000	157
25.9930000000	165
26.0230000000	186
26.0530000000	186
26.0830000000	162
26.1130000000	182
26.1430000000	154
26.1730000000	161
26.2030000000	188
26.2330000000	188
26.2630000000	241
26.2930000000	323
26.3230000000	410
26.3530000000	536
26.3830000000	657
26.4130000000	840
26.4430000000	957
26.4730000000	917
26.5030000000	756
26.5330000000	580
26.5630000000	424
26.5930000000	316
26.6230000000	264
26.6530000000	222
26.6830000000	193
26.7130000000	192
26.7430000000	207
26.7730000000	190
26.8030000000	182
26.8330000000	183
26.8630000000	168
26.8930000000	159
26.9230000000	157
26.9530000000	153
26.9830000000	149
27.0130000000	163
27.0430000000	176
27.0730000000	163
27.1030000000	146
27.1330000000	145
27.1630000000	159
27.1930000000	151
27.2230000000	119
27.2530000000	137
27.2830000000	152
27.3130000000	129
27.3430000000	145
27.3730000000	163
27.4030000000	144
27.4330000000	142
27.4630000000	133
27.4930000000	151
27.5230000000	134
27.5530000000	146
27.5830000000	160
27.6130000000	148
27.6430000000	148
27.6730000000	135
27.7030000000	163
27.7330000000	154
27.7630000000	140
27.7930000000	165
27.8230000000	147
27.8530000000	134
27.8830000000	142
27.9130000000	144
27.9430000000	156
27.9730000000	149
28.0030000000	121
28.0330000000	161
28.0630000000	149
28.0930000000	150
28.1230000000	148
28.1530000000	146
28.1830000000	129
28.2130000000	165
28.2430000000	162
28.2730000000	162
28.3030000000	136
28.3330000000	158
28.3630000000	147
28.3930000000	156
28.4230000000	173
28.4530000000	147
28.4830000000	174
28.5130000000	148
28.5430000000	144
28.5730000000	139
28.6030000000	139
28.6330000000	138
28.6630000000	138
28.6930000000	158
28.7230000000	156
28.7530000000	162
28.7830000000	162
28.8130000000	167
28.8430000000	151
28.8730000000	152
28.9030000000	139
28.9330000000	150
28.9630000000	148
28.9930000000	144
29.0230000000	153
29.0530000000	137
29.0830000000	147
29.1130000000	123
29.1430000000	146
29.1730000000	156
29.2030000000	147
29.2330000000	141
29.2630000000	140
29.2930000000	124
29.3230000000	139
29.3530000000	134
29.3830000000	132
29.4130000000	132
29.4430000000	126
29.4730000000	156
29.5030000000	120
29.5330000000	121
29.5630000000	118
29.5930000000	146
29.6230000000	135
29.6530000000	136
29.6830000000	133
29.7130000000	132
29.7430000000	129
29.7730000000	129
29.8030000000	118
29.8330000000	136
29.8630000000	124
29.8930000000	136
29.9230000000	155
29.9530000000	161
29.9830000000	128
30.0130000000	127
30.0430000000	146
30.0730000000	150
30.1030000000	155
30.1330000000	162
30.1630000000	160
30.1930000000	181
30.2230000000	235
30.2530000000	258
30.2830000000	381
30.3130000000	515
30.3430000000	698
30.3730000000	1113
30.4030000000	1578
30.4330000000	2298
30.4630000000	2682
30.4930000000	2590
30.5230000000	2171
30.5530000000	1516
30.5830000000	993
30.6130000000	611
30.6430000000	439
30.6730000000	329
30.7030000000	233
30.7330000000	186
30.7630000000	186
30.7930000000	153
30.8230000000	146
30.8530000000	162
30.8830000000	131
30.9130000000	133
30.9430000000	148
30.9730000000	135
31.0030000000	138
31.0330000000	121
31.0630000000	129
31.0930000000	130
31.1230000000	139
31.1530000000	128
31.1830000000	137
31.2130000000	142
31.2430000000	130
31.2730000000	116
31.3030000000	134
31.3330000000	118
31.3630000000	132
31.3930000000	129
31.4230000000	110
31.4530000000	123
31.4830000000	160
31.5130000000	144
31.5430000000	147
31.5730000000	133
31.6030000000	150
31.6330000000	162
31.6630000000	181
31.6930000000	193
31.7230000000	282
31.7530000000	376
31.7830000000	513
31.8130000000	714
31.8430000000	996
31.8730000000	1469
31.9030000000	1651
31.9330000000	1642
31.9630000000	1359
31.9930000000	1047
32.0230000000	831
32.0530000000	704
32.0830000000	661
32.1130000000	786
32.1430000000	976
32.1730000000	1092
32.2030000000	1107
32.2330000000	1016
32.2630000000	765
32.2930000000	551
32.3230000000	433
32.3530000000	295
32.3830000000	201
32.4130000000	173
32.4430000000	168
32.4730000000	143
32.5030000000	135
32.5330000000	114
32.5630000000	125
32.5930000000	117
32.6230000000	119
32.6530000000	111
32.6830000000	94
32.7130000000	99
32.7430000000	116
32.7730000000	107
32.8030000000	121
32.8330000000	116
32.8630000000	102
32.8930000000	114
32.9230000000	92
32.9530000000	95
32.9830000000	114
33.0130000000	113
33.0430000000	98
33.0730000000	118
33.1030000000	105
33.1330000000	117
33.1630000000	112
33.1930000000	120
33.2230000000	115
33.2530000000	125
33.2830000000	113
33.3130000000	131
33.3430000000	147
33.3730000000	121
33.4030000000	147
33.4330000000	139
33.4630000000	104
33.4930000000	100
33.5230000000	94
33.5530000000	111
33.5830000000	109
33.6130000000	102
33.6430000000	107
33.6730000000	109
33.7030000000	108
33.7330000000	118
33.7630000000	104
33.7930000000	108
33.8230000000	104
33.8530000000	89
33.8830000000	94
33.9130000000	98
33.9430000000	92
33.9730000000	91
34.0030000000	87
34.0330000000	101
34.0630000000	114
34.0930000000	106
34.1230000000	94
34.1530000000	101
34.1830000000	98
34.2130000000	97
34.2430000000	98
34.2730000000	96
34.3030000000	101
34.3330000000	89
34.3630000000	110
34.3930000000	94
34.4230000000	97
34.4530000000	90
34.4830000000	101
34.5130000000	86
34.5430000000	89
34.5730000000	102
34.6030000000	100
34.6330000000	105
34.6630000000	88
34.6930000000	99
34.7230000000	102
34.7530000000	106
34.7830000000	94
34.8130000000	108
34.8430000000	94
34.8730000000	102
34.9030000000	107
34.9330000000	107
34.9630000000	94
34.9930000000	92
35.0230000000	113
35.0530000000	88
35.0830000000	96
35.1130000000	107
35.1430000000	94
35.1730000000	100
35.2030000000	106
35.2330000000	129
35.2630000000	156
35.2930000000	153
35.3230000000	180
35.3530000000	228
35.3830000000	261
35.4130000000	269
35.4430000000	231
35.4730000000	233
35.5030000000	172
35.5330000000	149
35.5630000000	124
35.5930000000	117
35.6230000000	111
35.6530000000	106
35.6830000000	103
35.7130000000	95
35.7430000000	95
35.7730000000	95
35.8030000000	83
35.8330000000	94
35.8630000000	97
35.8930000000	111
35.9230000000	99
35.9530000000	90
35.9830000000	82
36.0130000000	96
36.0430000000	99
36.0730000000	98
36.1030000000	95
36.1330000000	81
36.1630000000	92
36.1930000000	97
36.2230000000	101
36.2530000000	92
36.2830000000	86
36.3130000000	94
36.3430000000	107
36.3730000000	120
36.4030000000	103
36.4330000000	100
36.4630000000	110
36.4930000000	145
36.5230000000	139
36.5530000000	158
36.5830000000	235
36.6130000000	321
36.6430000000	373
36.6730000000	398
36.7030000000	448
36.7330000000	405
36.7630000000	323
36.7930000000	238
36.8230000000	187
36.8530000000	136
36.8830000000	119
36.9130000000	109
36.9430000000	100
36.9730000000	100
37.0030000000	104
37.0330000000	100
37.0630000000	78
37.0930000000	95
37.1230000000	99
37.1530000000	89
37.1830000000	91
37.2130000000	102
37.2430000000	83
37.2730000000	102
37.3030000000	84
37.3330000000	87
37.3630000000	82
37.3930000000	82
37.4230000000	87
37.4530000000	83
37.4830000000	79
37.5130000000	69
37.5430000000	91
37.5730000000	94
37.6030000000	102
37.6330000000	94
37.6630000000	84
37.6930000000	105
37.7230000000	106
37.7530000000	98
37.7830000000	84
37.8130000000	84
37.8430000000	89
37.8730000000	80
37.9030000000	73
37.9330000000	74
37.9630000000	86
37.9930000000	72
38.0230000000	80
38.0530000000	80
38.0830000000	86
38.1130000000	94
38.1430000000	65
38.1730000000	79
38.2030000000	94
38.2330000000	79
38.2630000000	83
38.2930000000	98
38.3230000000	80
38.3530000000	87
38.3830000000	84
38.4130000000	84
38.4430000000	82
38.4730000000	82
38.5030000000	100
38.5330000000	93
38.5630000000	90
38.5930000000	97
38.6230000000	86
38.6530000000	75
38.6830000000	88
38.7130000000	94
38.7430000000	84
38.7730000000	80
38.8030000000	81
38.8330000000	93
38.8630000000	90
38.8930000000	89
38.9230000000	100
38.9530000000	91
38.9830000000	82
39.0130000000	80
39.0430000000	90
39.0730000000	105
39.1030000000	101
39.1330000000	83
39.1630000000	85
39.1930000000	97
39.2230000000	87
39.2530000000	92
39.2830000000	97
39.3130000000	95
39.3430000000	83
39.3730000000	91
39.4030000000	111
39.4330000000	94
39.4630000000	109
39.4930000000	113
39.5230000000	119
39.5530000000	114
39.5830000000	169
39.6130000000	210
39.6430000000	270
39.6730000000	371
39.7030000000	532
39.7330000000	788
39.7630000000	1078
39.7930000000	1223
39.8230000000	1214
39.8530000000	1031
39.8830000000	831
39.9130000000	588
39.9430000000	403
39.9730000000	269
40.0030000000	207
40.0330000000	134
40.0630000000	119
40.0930000000	104
40.1230000000	103
40.1530000000	100
40.1830000000	94
40.2130000000	93
40.2430000000	87
40.2730000000	95
40.3030000000	87
40.3330000000	79
40.3630000000	76
40.3930000000	85
40.4230000000	109
40.4530000000	68
40.4830000000	75
40.5130000000	78
40.5430000000	89
40.5730000000	93
40.6030000000	87
40.6330000000	99
40.6630000000	85
40.6930000000	86
40.7230000000	93
40.7530000000	88
40.7830000000	81
40.8130000000	89
40.8430000000	98
40.8730000000	80
40.9030000000	97
40.9330000000	94
40.9630000000	98
40.9930000000	118
41.0230000000	83
41.0530000000	80
41.0830000000	94
41.1130000000	111
41.1430000000	97
41.1730000000	99
41.2030000000	90
41.2330000000	92
41.2630000000	84
41.2930000000	90
41.3230000000	90
41.3530000000	97
41.3830000000	82
41.4130000000	94
41.4430000000	74
41.4730000000	87
41.5030000000	80
41.5330000000	76
41.5630000000	75
41.5930000000	95
41.6230000000	102
41.6530000000	88
41.6830000000	83
41.7130000000	72
41.7430000000	71
41.7730000000	79
41.8030000000	74
41.8330000000	68
41.8630000000	74
41.8930000000	69
41.9230000000	78
41.9530000000	85
41.9830000000	80
42.0130000000	72
42.0430000000	74
42.0730000000	75
42.1030000000	73
42.1330000000	84
42.1630000000	72
42.1930000000	73
42.2230000000	91
42.2530000000	75
42.2830000000	70
42.3130000000	68
42.3430000000	75
42.3730000000	79
42.4030000000	74
42.4330000000	80
42.4630000000	78
42.4930000000	71
42.5230000000	77
42.5530000000	73
42.5830000000	84
42.6130000000	85
42.6430000000	74
42.6730000000	83
42.7030000000	76
42.7330000000	70
42.7630000000	76
42.7930000000	90
42.8230000000	86
42.8530000000	79
42.8830000000	94
42.9130000000	97
42.9430000000	84
42.9730000000	101
43.0030000000	102
43.0330000000	114
43.0630000000	143
43.0930000000	177
43.1230000000	271
43.1530000000	355
43.1830000000	562
43.2130000000	791
43.2430000000	1044
43.2730000000	1262
43.3030000000	1310
43.3330000000	1235
43.3630000000	1045
43.3930000000	789
43.4230000000	560
43.4530000000	341
43.4830000000	268
43.5130000000	184
43.5430000000	128
43.5730000000	117
43.6030000000	93
43.6330000000	101
43.6630000000	88
43.6930000000	87
43.7230000000	116
43.7530000000	126
43.7830000000	106
43.8130000000	101
43.8430000000	112
43.8730000000	95
43.9030000000	98
43.9330000000	100
43.9630000000	94
43.9930000000	89
44.0230000000	84
44.0530000000	93
44.0830000000	81
44.1130000000	76
44.1430000000	72
44.1730000000	92
44.2030000000	66
44.2330000000	67
44.2630000000	79
44.2930000000	66
44.3230000000	77
44.3530000000	70
44.3830000000	71
44.4130000000	79
44.4430000000	86
44.4730000000	59
44.5030000000	90
44.5330000000	85
44.5630000000	73
44.5930000000	70
44.6230000000	92
44.6530000000	64
44.6830000000	65
44.7130000000	100
44.7430000000	72
44.7730000000	84
44.8030000000	98
44.8330000000	72
44.8630000000	72
44.8930000000	114
44.9230000000	129
44.9530000000	147
44.9830000000	225
45.0130000000	285
45.0430000000	347
45.0730000000	519
45.1030000000	722
45.1330000000	807
45.1630000000	874
45.1930000000	793
45.2230000000	653
45.2530000000	489
45.2830000000	345
45.3130000000	243
45.3430000000	176
45.3730000000	136
45.4030000000	112
45.4330000000	84
45.4630000000	76
45.4930000000	89
45.5230000000	87
45.5530000000	70
45.5830000000	70
45.6130000000	75
45.6430000000	76
45.6730000000	70
45.7030000000	69
45.7330000000	67
45.7630000000	61
45.7930000000	70
45.8230000000	66
45.8530000000	63
45.8830000000	71
45.9130000000	70
45.9430000000	85
45.9730000000	99
46.0030000000	117
46.0330000000	141
46.0630000000	171
46.0930000000	184
46.1230000000	206
46.1530000000	197
46.1830000000	165
46.2130000000	152
46.2430000000	147
46.2730000000	138
46.3030000000	91
46.3330000000	90
46.3630000000	71
46.3930000000	89
46.4230000000	97
46.4530000000	96
46.4830000000	107
46.5130000000	113
46.5430000000	101
46.5730000000	92
46.6030000000	99
46.6330000000	83
46.6630000000	89
46.6930000000	60
46.7230000000	57
46.7530000000	74
46.7830000000	74
46.8130000000	72
46.8430000000	90
46.8730000000	83
46.9030000000	85
46.9330000000	105
46.9630000000	128
46.9930000000	181
47.0230000000	203
47.0530000000	242
47.0830000000	249
47.1130000000	229
47.1430000000	197
47.1730000000	175
47.2030000000	147
47.2330000000	129
47.2630000000	111
47.2930000000	87
47.3230000000	77
47.3530000000	81
47.3830000000	76
47.4130000000	58
47.4430000000	69
47.4730000000	70
47.5030000000	79
47.5330000000	73
47.5630000000	98
47.5930000000	95
47.6230000000	88
47.6530000000	93
47.6830000000	86
47.7130000000	66
47.7430000000	67
47.7730000000	68
47.8030000000	66
47.8330000000	63
47.8630000000	61
47.8930000000	61
47.9230000000	59
47.9530000000	63
47.9830000000	58
48.0130000000	62
48.0430000000	60
48.0730000000	50
48.1030000000	71
48.1330000000	63
48.1630000000	50
48.1930000000	66
48.2230000000	73
48.2530000000	67
48.2830000000	62
48.3130000000	65
48.3430000000	50
48.3730000000	58
48.4030000000	65
48.4330000000	59
48.4630000000	56
48.4930000000	48
48.5230000000	47
48.5530000000	54
48.5830000000	56
48.6130000000	70
48.6430000000	55
48.6730000000	51
48.7030000000	43
48.7330000000	52
48.7630000000	46
48.7930000000	50
48.8230000000	60
48.8530000000	63
48.8830000000	47
48.9130000000	49
48.9430000000	60
48.9730000000	58
49.0030000000	55
49.0330000000	51
49.0630000000	60
49.0930000000	56
49.1230000000	48
49.1530000000	61
49.1830000000	56
49.2130000000	61
49.2430000000	48
49.2730000000	46
49.3030000000	61
49.3330000000	58
49.3630000000	56
49.3930000000	55
49.4230000000	47
49.4530000000	50
49.4830000000	58
49.5130000000	63
49.5430000000	57
49.5730000000	52
49.6030000000	48
49.6330000000	61
49.6630000000	57
49.6930000000	58
49.7230000000	63
49.7530000000	71
49.7830000000	77
49.8130000000	68
49.8430000000	68
49.8730000000	45
49.9030000000	51
49.9330000000	60
49.9630000000	50
49.9930000000	69
50.0230000000	53
50.0530000000	56
50.0830000000	62
50.1130000000	54
50.1430000000	57
50.1730000000	40
50.2030000000	52
50.2330000000	58
50.2630000000	48
50.2930000000	57
50.3230000000	53
50.3530000000	58
50.3830000000	55
50.4130000000	58
50.4430000000	68
50.4730000000	73
50.5030000000	73
50.5330000000	67
50.5630000000	84
50.5930000000	101
50.6230000000	94
50.6530000000	92
50.6830000000	80
50.7130000000	73
50.7430000000	77
50.7730000000	61
50.8030000000	55
50.8330000000	59
50.8630000000	51
50.8930000000	58
50.9230000000	54
50.9530000000	54
50.9830000000	53
51.0130000000	42
51.0430000000	42
51.0730000000	51
51.1030000000	62
51.1330000000	56
51.1630000000	49
51.1930000000	49
51.2230000000	52
51.2530000000	53
51.2830000000	48
51.3130000000	46
51.3430000000	57
51.3730000000	52
51.4030000000	47
51.4330000000	48
51.4630000000	51
51.4930000000	41
51.5230000000	49
51.5530000000	47
51.5830000000	54
51.6130000000	58
51.6430000000	50
51.6730000000	47
51.7030000000	46
51.7330000000	53
51.7630000000	49
51.7930000000	49
51.8230000000	52
51.8530000000	45
51.8830000000	48
51.9130000000	61
51.9430000000	56
51.9730000000	48
52.0030000000	42
52.0330000000	60
52.0630000000	73
52.0930000000	57
52.1230000000	67
52.1530000000	69
52.1830000000	77
52.2130000000	93
52.2430000000	78
52.2730000000	85
52.3030000000	76
52.3330000000	63
52.3630000000	66
52.3930000000	73
52.4230000000	56
52.4530000000	64
52.4830000000	52
52.5130000000	54
52.5430000000	47
52.5730000000	55
52.6030000000	34
52.6330000000	51
52.6630000000	59
52.6930000000	47
52.7230000000	59
52.7530000000	46
52.7830000000	50
52.8130000000	44
52.8430000000	44
52.8730000000	67
52.9030000000	51
52.9330000000	47
52.9630000000	44
52.9930000000	46
53.0230000000	65
53.0530000000	60
53.0830000000	46
53.1130000000	49
53.1430000000	57
53.1730000000	52
53.2030000000	55
53.2330000000	49
53.2630000000	52
53.2930000000	59
53.3230000000	59
53.3530000000	44
53.3830000000	48
53.4130000000	51
53.4430000000	56
53.4730000000	49
53.5030000000	51
53.5330000000	57
53.5630000000	49
53.5930000000	57
53.6230000000	47
53.6530000000	60
53.6830000000	56
53.7130000000	45
53.7430000000	60
53.7730000000	55
53.8030000000	54
53.8330000000	83
53.8630000000	76
53.8930000000	85
53.9230000000	99
53.9530000000	120
53.9830000000	120
54.0130000000	123
54.0430000000	104
54.0730000000	103
54.1030000000	95
54.1330000000	89
54.1630000000	70
54.1930000000	59
54.2230000000	47
54.2530000000	51
54.2830000000	57
54.3130000000	59
54.3430000000	69
54.3730000000	55
54.4030000000	58
54.4330000000	42
54.4630000000	52
54.4930000000	66
54.5230000000	40
54.5530000000	44
54.5830000000	55
54.6130000000	53
54.6430000000	50
54.6730000000	46
54.7030000000	51
54.7330000000	51
54.7630000000	48
54.7930000000	52
54.8230000000	47
54.8530000000	50
54.8830000000	50
54.9130000000	48
54.9430000000	48
54.9730000000	49
55.0030000000	67
55.0330000000	75
55.0630000000	96
55.0930000000	99
55.1230000000	109
55.1530000000	114
55.1830000000	117
55.2130000000	99
55.2430000000	106
55.2730000000	111
55.3030000000	84
55.3330000000	77
55.3630000000	69
55.3930000000	78
55.4230000000	78
55.4530000000	113
55.4830000000	124
55.5130000000	115
55.5430000000	117
55.5730000000	127
55.6030000000	124
55.6330000000	86
55.6630000000	96
55.6930000000	80
55.7230000000	72
55.7530000000	66
55.7830000000	72
55.8130000000	44
55.8430000000	38
55.8730000000	46
55.9030000000	47
55.9330000000	57
55.9630000000	45
55.9930000000	43
56.0230000000	45
56.0530000000	45
56.0830000000	46
56.1130000000	59
56.1430000000	46
56.1730000000	39
56.2030000000	57
56.2330000000	48
56.2630000000	47
56.2930000000	54
56.3230000000	47
56.3530000000	57
56.3830000000	40
56.4130000000	51
56.4430000000	47
56.4730000000	45
56.5030000000	46
56.5330000000	44
56.5630000000	52
56.5930000000	38
56.6230000000	35
56.6530000000	40
56.6830000000	52
56.7130000000	46
56.7430000000	53
56.7730000000	61
56.8030000000	42
56.8330000000	43
56.8630000000	36
56.8930000000	37
56.9230000000	46
56.9530000000	53
56.9830000000	47
57.0130000000	37
57.0430000000	39
57.0730000000	49
57.1030000000	45
57.1330000000	47
57.1630000000	55
57.1930000000	62
57.2230000000	53
57.2530000000	53
57.2830000000	49
57.3130000000	48
57.3430000000	51
57.3730000000	49
57.4030000000	50
57.4330000000	40
57.4630000000	50
57.4930000000	51
57.5230000000	43
57.5530000000	39
57.5830000000	31
57.6130000000	32
57.6430000000	45
57.6730000000	47
57.7030000000	61
57.7330000000	46
57.7630000000	45
57.7930000000	44
57.8230000000	33
57.8530000000	44
57.8830000000	35
57.9130000000	43
57.9430000000	41
57.9730000000	40
58.0030000000	54
58.0330000000	43
58.0630000000	50
58.0930000000	58
58.1230000000	36
58.1530000000	37
58.1830000000	35
58.2130000000	41
58.2430000000	40
58.2730000000	37
58.3030000000	39
58.3330000000	71
58.3630000000	44
58.3930000000	33
58.4230000000	49
58.4530000000	48
58.4830000000	51
58.5130000000	46
58.5430000000	43
58.5730000000	48
58.6030000000	47
58.6330000000	50
58.6630000000	35
58.6930000000	48
58.7230000000	46
58.7530000000	50
58.7830000000	38
58.8130000000	46
58.8430000000	41
58.8730000000	45
58.9030000000	41
58.9330000000	48
58.9630000000	38
58.9930000000	45
59.0230000000	36
59.0530000000	41
59.0830000000	44
59.1130000000	38
59.1430000000	39
59.1730000000	35
59.2030000000	40
59.2330000000	42
59.2630000000	48
59.2930000000	48
59.3230000000	35
59.3530000000	29
59.3830000000	34
59.4130000000	45
59.4430000000	51
59.4730000000	46
59.5030000000	37
59.5330000000	50
59.5630000000	46
59.5930000000	68
59.6230000000	41
59.6530000000	65
59.6830000000	45
59.7130000000	51
59.7430000000	55
59.7730000000	48
59.8030000000	45
59.8330000000	59
59.8630000000	69
59.8930000000	55
59.9230000000	46
59.9530000000	43
59.9830000000	43
60.0130000000	50
60.0430000000	53
60.0730000000	44
60.1030000000	45
60.1330000000	40
60.1630000000	53
60.1930000000	55
60.2230000000	63
60.2530000000	60
60.2830000000	84
60.3130000000	104
60.3430000000	136
60.3730000000	131
60.4030000000	154
60.4330000000	107
60.4630000000	97
60.4930000000	111
60.5230000000	96
60.5530000000	80
60.5830000000	72
60.6130000000	66
60.6430000000	45
60.6730000000	49
60.7030000000	50
60.7330000000	35
60.7630000000	37
60.7930000000	42
60.8230000000	57
60.8530000000	40
60.8830000000	43
60.9130000000	43
60.9430000000	52
60.9730000000	39
61.0030000000	47
61.0330000000	46
61.0630000000	30
61.0930000000	35
61.1230000000	53
61.1530000000	51
61.1830000000	51
61.2130000000	52
61.2430000000	53
61.2730000000	44
61.3030000000	59
61.3330000000	60
61.3630000000	54
61.3930000000	56
61.4230000000	67
61.4530000000	64
61.4830000000	83
61.5130000000	98
61.5430000000	89
61.5730000000	119
61.6030000000	111
61.6330000000	131
61.6630000000	111
61.6930000000	81
61.7230000000	97
61.7530000000	100
61.7830000000	75
61.8130000000	69
61.8430000000	64
61.8730000000	49
61.9030000000	52
61.9330000000	46
61.9630000000	41
61.9930000000	47
62.0230000000	47
62.0530000000	41
62.0830000000	35
62.1130000000	46
62.1430000000	41
62.1730000000	34
62.2030000000	40
62.2330000000	49
62.2630000000	43
62.2930000000	55
62.3230000000	44
62.3530000000	34
62.3830000000	47
62.4130000000	50
62.4430000000	36
62.4730000000	40
62.5030000000	40
62.5330000000	36
62.5630000000	47
62.5930000000	37
62.6230000000	38
62.6530000000	53
62.6830000000	39
62.7130000000	35
62.7430000000	43
62.7730000000	44
62.8030000000	35
62.8330000000	32
62.8630000000	46
62.8930000000	44
62.9230000000	40
62.9530000000	42
62.9830000000	42
63.0130000000	53
63.0430000000	39
63.0730000000	35
63.1030000000	44
63.1330000000	37
63.1630000000	40
63.1930000000	42
63.2230000000	39
63.2530000000	42
63.2830000000	39
63.3130000000	37
63.3430000000	41
63.3730000000	44
63.4030000000	54
63.4330000000	55
63.4630000000	46
63.4930000000	65
63.5230000000	46
63.5530000000	65
63.5830000000	42
63.6130000000	48
63.6430000000	51
63.6730000000	44
63.7030000000	39
63.7330000000	46
63.7630000000	49
63.7930000000	40
63.8230000000	41
63.8530000000	47
63.8830000000	40
63.9130000000	44
63.9430000000	49
63.9730000000	35
64.0030000000	48
64.0330000000	41
64.0630000000	42
64.0930000000	40
64.1230000000	42
64.1530000000	34
64.1830000000	38
64.2130000000	43
64.2430000000	54
64.2730000000	41
64.3030000000	39
64.3330000000	36
64.3630000000	44
64.3930000000	33
64.4230000000	42
64.4530000000	45
64.4830000000	34
64.5130000000	37
64.5430000000	40
64.5730000000	50
64.6030000000	53
64.6330000000	44
64.6630000000	46
64.6930000000	44
64.7230000000	45
64.7530000000	42
64.7830000000	41
64.8130000000	45
64.8430000000	44
64.8730000000	38
64.9030000000	50
64.9330000000	37
64.9630000000	43
64.9930000000	32
65.0230000000	27
65.0530000000	48
65.0830000000	44
65.1130000000	30
65.1430000000	40
65.1730000000	45
65.2030000000	46
65.2330000000	30
65.2630000000	43
65.2930000000	44
65.3230000000	32
65.3530000000	33
65.3830000000	35
65.4130000000	44
65.4430000000	49
65.4730000000	49
65.5030000000	34
65.5330000000	45
65.5630000000	51
65.5930000000	33
65.6230000000	36
65.6530000000	40
65.6830000000	44
65.7130000000	43
65.7430000000	49
65.7730000000	44
65.8030000000	37
65.8330000000	40
65.8630000000	33
65.8930000000	38
65.9230000000	41
65.9530000000	51
65.9830000000	45
66.0130000000	43
66.0430000000	46
66.0730000000	41
66.1030000000	55
66.1330000000	47
66.1630000000	46
66.1930000000	54
66.2230000000	45
66.2530000000	93
66.2830000000	94
66.3130000000	99
66.3430000000	140
66.3730000000	164
66.4030000000	145
66.4330000000	162
66.4630000000	133
66.4930000000	127
66.5230000000	117
66.5530000000	107
66.5830000000	97
66.6130000000	85
66.6430000000	81
66.6730000000	63
66.7030000000	46
66.7330000000	62
66.7630000000	53
66.7930000000	62
66.8230000000	53
66.8530000000	63
66.8830000000	36
66.9130000000	51
66.9430000000	58
66.9730000000	40
67.0030000000	51
67.0330000000	51
67.0630000000	39
67.0930000000	46
67.1230000000	46
67.1530000000	49
67.1830000000	49
67.2130000000	45
67.2430000000	45
67.2730000000	37
67.3030000000	39
67.3330000000	40
67.3630000000	37
67.3930000000	42
67.4230000000	44
67.4530000000	42
67.4830000000	45
67.5130000000	38
67.5430000000	52
67.5730000000	47
67.6030000000	42
67.6330000000	41
67.6630000000	40
67.6930000000	49
67.7230000000	39
67.7530000000	40
67.7830000000	42
67.8130000000	45
67.8430000000	48
67.8730000000	47
67.9030000000	51
67.9330000000	49
67.9630000000	40
67.9930000000	44
68.0230000000	39
68.0530000000	35
68.0830000000	40
68.1130000000	51
68.1430000000	43
68.1730000000	43
68.2030000000	49
68.2330000000	48
68.2630000000	33
68.2930000000	38
68.3230000000	39
68.3530000000	30
68.3830000000	34
68.4130000000	30
68.4430000000	41
68.4730000000	26
68.5030000000	39
68.5330000000	49
68.5630000000	46
68.5930000000	33
68.6230000000	32
68.6530000000	45
68.6830000000	40
68.7130000000	40
68.7430000000	40
68.7730000000	35
68.8030000000	42
68.8330000000	38
68.8630000000	35
68.8930000000	45
68.9230000000	44
68.9530000000	41
68.9830000000	31
69.0130000000	46
69.0430000000	36
69.0730000000	29
69.1030000000	38
69.1330000000	47
69.1630000000	50
69.1930000000	46
69.2230000000	40
69.2530000000	50
69.2830000000	49
69.3130000000	54
69.3430000000	61
69.3730000000	38
69.4030000000	47
69.4330000000	38
69.4630000000	53
69.4930000000	42
69.5230000000	36
69.5530000000	47
69.5830000000	46
69.6130000000	48
69.6430000000	47
69.6730000000	37
69.7030000000	41
69.7330000000	47
69.7630000000	33
69.7930000000	33
69.8230000000	32
69.8530000000	41
69.8830000000	31
69.9130000000	44
69.9430000000	53
69.9730000000	40
70.0030000000	37
70.0330000000	38
70.0630000000	44
70.0930000000	43
70.1230000000	31
70.1530000000	37
70.1830000000	41
70.2130000000	42
70.2430000000	33
70.2730000000	40
70.3030000000	55
70.3330000000	46
70.3630000000	38
70.3930000000	44
70.4230000000	40
70.4530000000	34
70.4830000000	40
70.5130000000	42
70.5430000000	46
70.5730000000	34
70.6030000000	47
70.6330000000	36
70.6630000000	46
70.6930000000	48
70.7230000000	37
70.7530000000	35
70.7830000000	48
70.8130000000	37
70.8430000000	49
70.8730000000	36
70.9030000000	33
70.9330000000	39
70.9630000000	33
70.9930000000	33
71.0230000000	37
71.0530000000	40
71.0830000000	49
71.1130000000	53
71.1430000000	42
71.1730000000	36
71.2030000000	30
71.2330000000	32
71.2630000000	35
71.2930000000	47
71.3230000000	47
71.3530000000	35
71.3830000000	37
71.4130000000	35
71.4430000000	40
71.4730000000	39
71.5030000000	37
71.5330000000	36
71.5630000000	49
71.5930000000	39
71.6230000000	43
71.6530000000	31
71.6830000000	50
71.7130000000	40
71.7430000000	39
71.7730000000	40
71.8030000000	42
71.8330000000	41
71.8630000000	42
71.8930000000	51
71.9230000000	44
71.9530000000	48
71.9830000000	45
72.0130000000	37
72.0430000000	47
72.0730000000	55
72.1030000000	69
72.1330000000	60
72.1630000000	66
72.1930000000	46
72.2230000000	66
72.2530000000	50
72.2830000000	54
72.3130000000	53
72.3430000000	55
72.3730000000	51
72.4030000000	57
72.4330000000	67
72.4630000000	74
72.4930000000	94
72.5230000000	105
72.5530000000	121
72.5830000000	116
72.6130000000	98
72.6430000000	91
72.6730000000	85
72.7030000000	104
72.7330000000	90
72.7630000000	78
72.7930000000	78
72.8230000000	83
72.8530000000	77
72.8830000000	80
72.9130000000	88
72.9430000000	136
72.9730000000	142
73.0030000000	165
73.0330000000	169
73.0630000000	161
73.0930000000	113
73.1230000000	111
73.1530000000	119
73.1830000000	115
73.2130000000	100
73.2430000000	89
73.2730000000	64
73.3030000000	69
73.3330000000	75
73.3630000000	50
73.3930000000	44
73.4230000000	51
73.4530000000	40
73.4830000000	52
73.5130000000	44
73.5430000000	42
73.5730000000	50
73.6030000000	49
73.6330000000	44
73.6630000000	47
73.6930000000	52
73.7230000000	52
73.7530000000	48
73.7830000000	41
73.8130000000	39
73.8430000000	58
73.8730000000	45
73.9030000000	46
73.9330000000	40
73.9630000000	32
73.9930000000	42
74.0230000000	44
74.0530000000	42
74.0830000000	39
74.1130000000	53
74.1430000000	47
74.1730000000	38
74.2030000000	41
74.2330000000	45
74.2630000000	50
74.2930000000	46
74.3230000000	42
74.3530000000	47
74.3830000000	50
74.4130000000	50
74.4430000000	33
74.4730000000	34
74.5030000000	35
74.5330000000	34
74.5630000000	45
74.5930000000	45
74.6230000000	44
74.6530000000	48
74.6830000000	39
74.7130000000	35
74.7430000000	43
74.7730000000	50
74.8030000000	55
74.8330000000	53
74.8630000000	64
74.8930000000	64
74.9230000000	72
74.9530000000	57
74.9830000000	51
75.0130000000	45
75.0430000000	39
75.0730000000	47
75.1030000000	46
75.1330000000	46
75.1630000000	43
75.1930000000	45
75.2230000000	38
75.2530000000	45
75.2830000000	51
75.3130000000	50
75.3430000000	49
75.3730000000	43
75.4030000000	39
75.4330000000	45
75.4630000000	51
75.4930000000	50
75.5230000000	58
75.5530000000	66
75.5830000000	40
75.6130000000	54
75.6430000000	34
75.6730000000	26
75.7030000000	35
75.7330000000	41
75.7630000000	44
75.7930000000	41
75.8230000000	35
75.8530000000	40
75.8830000000	45
75.9130000000	45
75.9430000000	40
75.9730000000	38
76.0030000000	50
76.0330000000	48
76.0630000000	40
76.0930000000	47
76.1230000000	54
76.1530000000	43
76.1830000000	34
76.2130000000	43
76.2430000000	37
76.2730000000	45
76.3030000000	40
76.3330000000	30
76.3630000000	50
76.3930000000	34
76.4230000000	33
76.4530000000	30
76.4830000000	37
76.5130000000	38
76.5430000000	51
76.5730000000	43
76.6030000000	42
76.6330000000	41
76.6630000000	46
76.6930000000	35
76.7230000000	50
76.7530000000	42
76.7830000000	35
76.8130000000	31
76.8430000000	38
76.8730000000	38
76.9030000000	37
76.9330000000	43
76.9630000000	40
76.9930000000	33
77.0230000000	39
77.0530000000	35
77.0830000000	40
77.1130000000	37
77.1430000000	48
77.1730000000	34
77.2030000000	44
77.2330000000	34
77.2630000000	33
77.2930000000	45
77.3230000000	23
77.3530000000	35
77.3830000000	43
77.4130000000	35
77.4430000000	47
77.4730000000	37
77.5030000000	56
77.5330000000	49
77.5630000000	61
77.5930000000	60
77.6230000000	81
77.6530000000	82
77.6830000000	68
77.7130000000	61
77.7430000000	60
77.7730000000	77
77.8030000000	65
77.8330000000	74
77.8630000000	70
77.8930000000	62
77.9230000000	52
77.9530000000	50
77.9830000000	52
78.0130000000	52
78.0430000000	48
78.0730000000	54
78.1030000000	56
78.1330000000	44
78.1630000000	55
78.1930000000	53
78.2230000000	48
78.2530000000	49
78.2830000000	45
78.3130000000	39
78.3430000000	37
78.3730000000	41
78.4030000000	41
78.4330000000	43
78.4630000000	46
78.4930000000	38
78.5230000000	24
78.5530000000	33
78.5830000000	40
78.6130000000	39
78.6430000000	37
78.6730000000	48
78.7030000000	62
78.7330000000	44
78.7630000000	51
78.7930000000	44
78.8230000000	50
78.8530000000	65
78.8830000000	47
78.9130000000	46
78.9430000000	51
78.9730000000	56
79.0030000000	52
79.0330000000	37
79.0630000000	38
79.0930000000	42
79.1230000000	40
79.1530000000	33
79.1830000000	40
79.2130000000	35
79.2430000000	42
79.2730000000	45
79.3030000000	46
79.3330000000	40
79.3630000000	28
79.3930000000	34
79.4230000000	44
79.4530000000	37
79.4830000000	43
79.5130000000	44
79.5430000000	37
79.5730000000	35
79.6030000000	39
79.6330000000	39
79.6630000000	35
79.6930000000	35
79.7230000000	47
79.7530000000	45
79.7830000000	42
79.8130000000	40
79.8430000000	42
79.8730000000	53
79.9030000000	56
79.9330000000	52
79.9630000000	52
79.9930000000	38
80.0230000000	42
80.0530000000	46
80.0830000000	51
80.1130000000	41
80.1430000000	35
80.1730000000	37
80.2030000000	41
80.2330000000	36
80.2630000000	36
80.2930000000	46
80.3230000000	47
80.3530000000	39
80.3830000000	35
80.4130000000	33
80.4430000000	30
80.4730000000	26
80.5030000000	44
80.5330000000	38
80.5630000000	36
80.5930000000	47
80.6230000000	51
80.6530000000	44
80.6830000000	51
80.7130000000	63
80.7430000000	60
80.7730000000	68
80.8030000000	58
80.8330000000	48
80.8630000000	60
80.8930000000	60
80.9230000000	47
80.9530000000	56
80.9830000000	52
81.0130000000	50
81.0430000000	39
81.0730000000	41
81.1030000000	51
81.1330000000	43
81.1630000000	47
81.1930000000	37
81.2230000000	48
81.2530000000	29
81.2830000000	47
81.3130000000	33
81.3430000000	45
81.3730000000	45
81.4030000000	42
81.4330000000	56
81.4630000000	52
81.4930000000	59
81.5230000000	45
81.5530000000	47
81.5830000000	44
81.6130000000	44
81.6430000000	44
81.6730000000	44
81.7030000000	40
81.7330000000	48
81.7630000000	37
81.7930000000	39
81.8230000000	46
81.8530000000	41
81.8830000000	36
81.9130000000	31
81.9430000000	38
81.9730000000	31
82.0030000000	45
82.0330000000	37
82.0630000000	37
82.0930000000	46
82.1230000000	36
82.1530000000	29
82.1830000000	35
82.2130000000	45
82.2430000000	35
82.2730000000	31
82.3030000000	40
82.3330000000	54
82.3630000000	41
82.3930000000	25
82.4230000000	32
82.4530000000	43
82.4830000000	47
82.5130000000	37
82.5430000000	39
82.5730000000	44
82.6030000000	40
82.6330000000	42
82.6630000000	39
82.6930000000	32
82.7230000000	39
82.7530000000	31
82.7830000000	30
82.8130000000	36
82.8430000000	39
82.8730000000	31
82.9030000000	41
82.9330000000	53
82.9630000000	33
82.9930000000	37
83.0230000000	38
83.0530000000	38
83.0830000000	44
83.1130000000	47
83.1430000000	40
83.1730000000	40
83.2030000000	48
83.2330000000	39
83.2630000000	42
83.2930000000	47
83.3230000000	49
83.3530000000	51
83.3830000000	56
83.4130000000	59
83.4430000000	52
83.4730000000	48
83.5030000000	59
83.5330000000	45
83.5630000000	60
83.5930000000	55
83.6230000000	63
83.6530000000	48
83.6830000000	44
83.7130000000	46
83.7430000000	42
83.7730000000	46
83.8030000000	38
83.8330000000	44
83.8630000000	43
83.8930000000	34
83.9230000000	36
83.9530000000	55
83.9830000000	33
84.0130000000	37
84.0430000000	37
84.0730000000	43
84.1030000000	37
84.1330000000	29
84.1630000000	36
84.1930000000	36
84.2230000000	37
84.2530000000	36
84.2830000000	20
84.3130000000	33
84.3430000000	29
84.3730000000	29
84.4030000000	42
84.4330000000	38
84.4630000000	34
84.4930000000	31
84.5230000000	35
84.5530000000	45
84.5830000000	36
84.6130000000	38
84.6430000000	39
84.6730000000	37
84.7030000000	37
84.7330000000	31
84.7630000000	41
84.7930000000	31
84.8230000000	36
84.8530000000	43
84.8830000000	37
84.9130000000	37
84.9430000000	38
84.9730000000	39
85.0030000000	31
85.0330000000	41
85.0630000000	33
85.0930000000	29
85.1230000000	37
85.1530000000	33
85.1830000000	37
85.2130000000	39
85.2430000000	38
85.2730000000	39
85.3030000000	46
85.3330000000	31
85.3630000000	33
85.3930000000	44
85.4230000000	35
85.4530000000	32
85.4830000000	36
85.5130000000	31
85.5430000000	42
85.5730000000	37
85.6030000000	40
85.6330000000	41
85.6630000000	38
85.6930000000	48
85.7230000000	49
85.7530000000	44
85.7830000000	54
85.8130000000	53
85.8430000000	46
85.8730000000	39
85.9030000000	35
85.9330000000	45
85.9630000000	44
85.9930000000	50
86.0230000000	42
86.0530000000	43
86.0830000000	49
86.1130000000	35
86.1430000000	37
86.1730000000	42
86.2030000000	38
86.2330000000	39
86.2630000000	41
86.2930000000	42
86.3230000000	37
86.3530000000	38
86.3830000000	47
86.4130000000	44
86.4430000000	37
86.4730000000	46
86.5030000000	46
86.5330000000	40
86.5630000000	43
86.5930000000	39
86.6230000000	33
86.6530000000	41
86.6830000000	29
86.7130000000	43
86.7430000000	48
86.7730000000	49
86.8030000000	44
86.8330000000	50
86.8630000000	50
86.8930000000	41
86.9230000000	44
86.9530000000	40
86.9830000000	40
87.0130000000	45
87.0430000000	50
87.0730000000	40
87.1030000000	32
87.1330000000	43
87.1630000000	45
87.1930000000	38
87.2230000000	36
87.2530000000	40
87.2830000000	38
87.3130000000	32
87.3430000000	38
87.3730000000	30
87.4030000000	45
87.4330000000	42
87.4630000000	30
87.4930000000	29
87.5230000000	38
87.5530000000	28
87.5830000000	41
87.6130000000	41
87.6430000000	32
87.6730000000	33
87.7030000000	46
87.7330000000	48
87.7630000000	35
87.7930000000	40
87.8230000000	42
87.8530000000	34
87.8830000000	39
87.9130000000	53
87.9430000000	43
87.9730000000	41
88.0030000000	45
88.0330000000	52
88.0630000000	47
88.0930000000	38
88.1230000000	36
88.1530000000	44
88.1830000000	49
88.2130000000	42
88.2430000000	37
88.2730000000	33
88.3030000000	44
88.3330000000	41
88.3630000000	49
88.3930000000	58
88.4230000000	61
88.4530000000	43
88.4830000000	62
88.5130000000	32
88.5430000000	32
88.5730000000	39
88.6030000000	39
88.6330000000	53
88.6630000000	47
88.6930000000	39
88.7230000000	36
88.7530000000	46
88.7830000000	45
88.8130000000	40
88.8430000000	43
88.8730000000	45
88.9030000000	41
88.9330000000	52
88.9630000000	31
88.9930000000	36
89.0230000000	45
89.0530000000	38
89.0830000000	38
89.1130000000	35
89.1430000000	30
89.1730000000	48
89.2030000000	45
89.2330000000	41
89.2630000000	31
89.2930000000	41
89.3230000000	41
89.3530000000	40
89.3830000000	36
89.4130000000	49
89.4430000000	44
89.4730000000	46
89.5030000000	41
89.5330000000	47
89.5630000000	44
89.5930000000	39
89.6230000000	49
89.6530000000	54
89.6830000000	56
89.7130000000	52
89.7430000000	53
89.7730000000	59
89.8030000000	55
89.8330000000	56
89.8630000000	55
89.8930000000	41
89.9230000000	49
89.9530000000	39
89.9830000000	39
90.0130000000	42
90.0430000000	38
90.0730000000	38
90.1030000000	48
90.1330000000	33
90.1630000000	31
90.1930000000	28
90.2230000000	34
90.2530000000	45
90.2830000000	45
90.3130000000	37
90.3430000000	39
90.3730000000	35
90.4030000000	34
90.4330000000	39
90.4630000000	40
90.4930000000	35
90.5230000000	47
90.5530000000	35
90.5830000000	45
90.6130000000	38
90.6430000000	40
90.6730000000	54
90.7030000000	32
90.7330000000	40
90.7630000000	33
90.7930000000	31
90.8230000000	38
90.8530000000	33
90.8830000000	34
90.9130000000	36
90.9430000000	40
90.9730000000	38
91.0030000000	39
91.0330000000	38
91.0630000000	46
91.0930000000	29
91.1230000000	28
91.1530000000	32
91.1830000000	40
91.2130000000	34
91.2430000000	45
91.2730000000	31
91.3030000000	38
91.3330000000	42
91.3630000000	37
91.3930000000	35
91.4230000000	43
91.4530000000	42
91.4830000000	37
91.5130000000	36
91.5430000000	37
91.5730000000	34
91.6030000000	38
91.6330000000	32
91.6630000000	24
91.6930000000	36
91.7230000000	42
91.7530000000	34
91.7830000000	28
91.8130000000	33
91.8430000000	33
91.8730000000	29
91.9030000000	34
91.9330000000	34
91.9630000000	30
91.9930000000	41
92.0230000000	35
92.0530000000	38
92.0830000000	41
92.1130000000	40
92.1430000000	37
92.1730000000	27
92.2030000000	33
92.2330000000	32
92.2630000000	24
92.2930000000	36
92.3230000000	37
92.3530000000	45
92.3830000000	35
92.4130000000	38
92.4430000000	45
92.4730000000	35
92.5030000000	39
92.5330000000	42
92.5630000000	47
92.5930000000	42
92.6230000000	41
92.6530000000	34
92.6830000000	37
92.7130000000	27
92.7430000000	29
92.7730000000	29
92.8030000000	33
92.8330000000	24
92.8630000000	32
92.8930000000	43
92.9230000000	30
92.9530000000	34
92.9830000000	33
93.0130000000	37
93.0430000000	42
93.0730000000	33
93.1030000000	39
93.1330000000	41
93.1630000000	38
93.1930000000	35
93.2230000000	32
93.2530000000	37
93.2830000000	41
93.3130000000	31
93.3430000000	32
93.3730000000	46
93.4030000000	37
93.4330000000	23
93.4630000000	31
93.4930000000	31
93.5230000000	38
93.5530000000	51
93.5830000000	46
93.6130000000	46
93.6430000000	36
93.6730000000	37
93.7030000000	42
93.7330000000	41
93.7630000000	42
93.7930000000	40
93.8230000000	36
93.8530000000	38
93.8830000000	42
93.9130000000	38
93.9430000000	43
93.9730000000	39
94.0030000000	46
94.0330000000	36
94.0630000000	36
94.0930000000	36
94.1230000000	38
94.1530000000	47
94.1830000000	42
94.2130000000	32
94.2430000000	38
94.2730000000	44
94.3030000000	36
94.3330000000	37
94.3630000000	47
94.3930000000	43
94.4230000000	34
94.4530000000	41
94.4830000000	45
94.5130000000	48
94.5430000000	39
94.5730000000	24
94.6030000000	37
94.6330000000	49
94.6630000000	46
94.6930000000	46
94.7230000000	43
94.7530000000	41
94.7830000000	54
94.8130000000	35
94.8430000000	51
94.8730000000	37
94.9030000000	33
94.9330000000	34
94.9630000000	48
94.9930000000	41
95.0230000000	47
95.0530000000	44
95.0830000000	38
95.1130000000	41
95.1430000000	30
95.1730000000	48
95.2030000000	46
95.2330000000	29
95.2630000000	37
95.2930000000	42
95.3230000000	22
95.3530000000	39
95.3830000000	48
95.4130000000	51
95.4430000000	38
95.4730000000	32
95.5030000000	41
95.5330000000	35
95.5630000000	37
95.5930000000	49
95.6230000000	38
95.6530000000	40
95.6830000000	39
95.7130000000	36
95.7430000000	39
95.7730000000	34
95.8030000000	35
95.8330000000	38
95.8630000000	38
95.8930000000	36
95.9230000000	34
95.9530000000	36
95.9830000000	43
96.0130000000	39
96.0430000000	32
96.0730000000	43
96.1030000000	43
96.1330000000	24
96.1630000000	43
96.1930000000	32
96.2230000000	33
96.2530000000	34
96.2830000000	34
96.3130000000	38
96.3430000000	44
96.3730000000	46
96.4030000000	40
96.4330000000	33
96.4630000000	40
96.4930000000	46
96.5230000000	38
96.5530000000	55
96.5830000000	45
96.6130000000	44
96.6430000000	48
96.6730000000	34
96.7030000000	30
96.7330000000	39
96.7630000000	36
96.7930000000	38
96.8230000000	33
96.8530000000	28
96.8830000000	34
96.9130000000	45
96.9430000000	56
96.9730000000	42
97.0030000000	37
97.0330000000	42
97.0630000000	49
97.0930000000	36
97.1230000000	40
97.1530000000	43
97.1830000000	25
97.2130000000	29
97.2430000000	33
97.2730000000	37
97.3030000000	38
97.3330000000	41
97.3630000000	43
97.3930000000	39
97.4230000000	45
97.4530000000	48
97.4830000000	35
97.5130000000	42
97.5430000000	33
97.5730000000	34
97.6030000000	30
97.6330000000	31
97.6630000000	37
97.6930000000	42
97.7230000000	37
97.7530000000	32
97.7830000000	40
97.8130000000	50
97.8430000000	46
97.8730000000	35
97.9030000000	26
97.9330000000	34
97.9630000000	29
97.9930000000	41
98.0230000000	33
98.0530000000	36
98.0830000000	40
98.1130000000	35
98.1430000000	36
98.1730000000	28
98.2030000000	27
98.2330000000	34
98.2630000000	29
98.2930000000	37
98.3230000000	38
98.3530000000	26
98.3830000000	45
98.4130000000	47
98.4430000000	47
98.4730000000	28
98.5030000000	37
98.5330000000	40
98.5630000000	39
98.5930000000	40
98.6230000000	39
98.6530000000	30
98.6830000000	40
98.7130000000	54
98.7430000000	44
98.7730000000	38
98.8030000000	44
98.8330000000	47
98.8630000000	47
98.8930000000	42
98.9230000000	37
98.9530000000	40
98.9830000000	36
99.0130000000	34
99.0430000000	28
99.0730000000	35
99.1030000000	31
99.1330000000	38
99.1630000000	44
99.1930000000	46
99.2230000000	35
99.2530000000	32
99.2830000000	31
99.3130000000	33
99.3430000000	35
99.3730000000	34
99.4030000000	38
99.4330000000	34
99.4630000000	27
99.4930000000	31
99.5230000000	29
99.5530000000	37
99.5830000000	36
99.6130000000	28
99.6430000000	39
99.6730000000	39
99.7030000000	52
99.7330000000	31
99.7630000000	36
99.7930000000	41
99.8230000000	42
99.8530000000	37
99.8830000000	34
99.9130000000	34
99.9430000000	38
99.9730000000	29
100.0030000000	43
100.0330000000	35
100.0630000000	38
100.0930000000	44
100.1230000000	38
100.1530000000	35
100.1830000000	35
100.2130000000	34
100.2430000000	29
100.2730000000	30
100.3030000000	49
100.3330000000	28
100.3630000000	26
100.3930000000	37
100.4230000000	24
100.4530000000	42
100.4830000000	36
100.5130000000	36
100.5430000000	34
100.5730000000	35
100.6030000000	39
100.6330000000	38
100.6630000000	32
100.6930000000	35
100.7230000000	34
100.7530000000	28
100.7830000000	38
100.8130000000	38
100.8430000000	30
100.8730000000	33
100.9030000000	33
100.9330000000	42
100.9630000000	35
100.9930000000	44
101.0230000000	34
101.0530000000	35
101.0830000000	41
101.1130000000	36
101.1430000000	31
101.1730000000	42
101.2030000000	31
101.2330000000	29
101.2630000000	38
101.2930000000	43
101.3230000000	28
101.3530000000	32
101.3830000000	37
101.4130000000	33
101.4430000000	35
101.4730000000	33
101.5030000000	37
101.5330000000	45
101.5630000000	40
101.5930000000	28
101.6230000000	34
101.6530000000	39
101.6830000000	32
101.7130000000	30
101.7430000000	29
101.7730000000	34
101.8030000000	36
101.8330000000	40
101.8630000000	38
101.8930000000	34
101.9230000000	37
101.9530000000	32
101.9830000000	27
102.0130000000	35
102.0430000000	39
102.0730000000	37
102.1030000000	41
102.1330000000	35
102.1630000000	37
102.1930000000	39
102.2230000000	38
102.2530000000	32
102.2830000000	32
102.3130000000	33
102.3430000000	41
102.3730000000	36
102.4030000000	33
102.4330000000	36
102.4630000000	32
102.4930000000	27
102.5230000000	29
102.5530000000	31
102.5830000000	25
102.6130000000	35
102.6430000000	49
102.6730000000	35
102.7030000000	40
102.7330000000	50
102.7630000000	42
102.7930000000	39
102.8230000000	32
102.8530000000	35
102.8830000000	39
102.9130000000	45
102.9430000000	37
102.9730000000	28
103.0030000000	34
103.0330000000	33
103.0630000000	30
103.0930000000	35
103.1230000000	43
103.1530000000	34
103.1830000000	39
103.2130000000	42
103.2430000000	35
103.2730000000	34
103.3030000000	34
103.3330000000	38
103.3630000000	34
103.3930000000	44
103.4230000000	37
103.4530000000	34
103.4830000000	37
103.5130000000	33
103.5430000000	28
103.5730000000	31
103.6030000000	29
103.6330000000	32
103.6630000000	36
103.6930000000	39
103.7230000000	27
103.7530000000	38
103.7830000000	28
103.8130000000	37
103.8430000000	41
103.8730000000	38
103.9030000000	44
103.9330000000	32
103.9630000000	49
103.9930000000	34
104.0230000000	39
104.0530000000	39
104.0830000000	40
104.1130000000	33
104.1430000000	38
104.1730000000	44
104.2030000000	43
104.2330000000	37
104.2630000000	35
104.2930000000	36
104.3230000000	33
104.3530000000	42
104.3830000000	45
104.4130000000	45
104.4430000000	42
104.4730000000	25
104.5030000000	38
104.5330000000	29
104.5630000000	44
104.5930000000	34
104.6230000000	43
104.6530000000	39
104.6830000000	46
104.7130000000	39
104.7430000000	41
104.7730000000	48
104.8030000000	43
104.8330000000	43
104.8630000000	40
104.8930000000	46
104.9230000000	48
104.9530000000	31
104.9830000000	43
105.0130000000	47
105.0430000000	41
105.0730000000	36
105.1030000000	36
105.1330000000	45
105.1630000000	42
105.1930000000	36
105.2230000000	42
105.2530000000	43
105.2830000000	48
105.3130000000	36
105.3430000000	35
105.3730000000	33
105.4030000000	37
105.4330000000	27
105.4630000000	33
105.4930000000	45
105.5230000000	47
105.5530000000	30
105.5830000000	29
105.6130000000	46
105.6430000000	28
105.6730000000	30
105.7030000000	40
105.7330000000	50
105.7630000000	42
105.7930000000	32
105.8230000000	35
105.8530000000	33
105.8830000000	27
105.9130000000	34
105.9430000000	32
105.9730000000	41
106.0030000000	42
106.0330000000	37
106.0630000000	32
106.0930000000	41
106.1230000000	43
106.1530000000	35
106.1830000000	47
106.2130000000	31
106.2430000000	36
106.2730000000	33
106.3030000000	32
106.3330000000	40
106.3630000000	48
106.3930000000	41
106.4230000000	34
106.4530000000	33
106.4830000000	39
106.5130000000	31
106.5430000000	39
106.5730000000	41
106.6030000000	53
106.6330000000	36
106.6630000000	47
106.6930000000	31
106.7230000000	32
106.7530000000	38
106.7830000000	32
106.8130000000	42
106.8430000000	34
106.8730000000	52
106.9030000000	40
106.9330000000	38
106.9630000000	48
106.9930000000	47
107.0230000000	46
107.0530000000	44
107.0830000000	47
107.1130000000	39
107.1430000000	42
107.1730000000	45
107.2030000000	41
107.2330000000	38
107.2630000000	38
107.2930000000	43
107.3230000000	50
107.3530000000	32
107.3830000000	34
107.4130000000	36
107.4430000000	40
107.4730000000	44
107.5030000000	54
107.5330000000	40
107.5630000000	31
107.5930000000	41
107.6230000000	39
107.6530000000	36
107.6830000000	41
107.7130000000	39
107.7430000000	42
107.7730000000	44
107.8030000000	45
107.8330000000	45
107.8630000000	38
107.8930000000	34
107.9230000000	36
107.9530000000	45
107.9830000000	54
108.0130000000	44
108.0430000000	27
108.0730000000	38
108.1030000000	46
108.1330000000	36
108.1630000000	42
108.1930000000	35
108.2230000000	39
108.2530000000	37
108.2830000000	38
108.3130000000	30
108.3430000000	34
108.3730000000	41
108.4030000000	36
108.4330000000	33
108.4630000000	39
108.4930000000	49
108.5230000000	39
108.5530000000	34
108.5830000000	35
108.6130000000	37
108.6430000000	38
108.6730000000	33
108.7030000000	43
108.7330000000	26
108.7630000000	33
108.7930000000	27
108.8230000000	27
108.8530000000	34
108.8830000000	31
108.9130000000	37
108.9430000000	35
108.9730000000	33
109.0030000000	39
109.0330000000	40
109.0630000000	35
109.0930000000	31
109.1230000000	34
109.1530000000	36
109.1830000000	38
109.2130000000	45
109.2430000000	40
109.2730000000	37
109.3030000000	36
109.3330000000	42
109.3630000000	30
109.3930000000	39
109.4230000000	31
109.4530000000	42
109.4830000000	38
109.5130000000	42
109.5430000000	34
109.5730000000	38
109.6030000000	38
109.6330000000	39
109.6630000000	44
109.6930000000	42
109.7230000000	43
109.7530000000	45
109.7830000000	42
109.8130000000	40
109.8430000000	45
109.8730000000	44
109.9030000000	44
109.9330000000	33
109.9630000000	37
109.9930000000	34
110.0230000000	43
110.0530000000	39
110.0830000000	41
110.1130000000	35
110.1430000000	34
110.1730000000	35
110.2030000000	40
110.2330000000	37
110.2630000000	43
110.2930000000	37
110.3230000000	37
110.3530000000	39
110.3830000000	45
110.4130000000	43
110.4430000000	33
110.4730000000	43
110.5030000000	47
110.5330000000	32
110.5630000000	40
110.5930000000	35
110.6230000000	34
110.6530000000	37
110.6830000000	27
110.7130000000	36
110.7430000000	39
110.7730000000	45
110.8030000000	42
110.8330000000	40
110.8630000000	34
110.8930000000	38
110.9230000000	38
110.9530000000	36
110.9830000000	36
111.0130000000	35
111.0430000000	36
111.0730000000	43
111.1030000000	47
111.1330000000	38
111.1630000000	38
111.1930000000	40
111.2230000000	41
111.2530000000	52
111.2830000000	34
111.3130000000	32
111.3430000000	37
111.3730000000	48
111.4030000000	30
111.4330000000	45
111.4630000000	40
111.4930000000	41
111.5230000000	44
111.5530000000	42
111.5830000000	48
111.6130000000	51
111.6430000000	37
111.6730000000	36
111.7030000000	33
111.7330000000	32
111.7630000000	47
111.7930000000	49
111.8230000000	37
111.8530000000	32
111.8830000000	32
111.9130000000	42
111.9430000000	42
111.9730000000	46
112.0030000000	38
112.0330000000	30
112.0630000000	36
112.0930000000	42
112.1230000000	34
112.1530000000	35
112.1830000000	43
112.2130000000	40
112.2430000000	34
112.2730000000	52
112.3030000000	31
112.3330000000	33
112.3630000000	28
112.3930000000	44
112.4230000000	37
112.4530000000	49
112.4830000000	43
112.5130000000	33
112.5430000000	42
112.5730000000	46
112.6030000000	43
112.6330000000	42
112.6630000000	37
112.6930000000	42
112.7230000000	41
112.7530000000	35
112.7830000000	35
112.8130000000	39
112.8430000000	45
112.8730000000	40
112.9030000000	35
112.9330000000	41
112.9630000000	35
112.9930000000	40
113.0230000000	43
113.0530000000	47
113.0830000000	64
113.1130000000	53
113.1430000000	51
113.1730000000	62
113.2030000000	63
113.2330000000	80
113.2630000000	64
113.2930000000	56
113.3230000000	68
113.3530000000	60
113.3830000000	56
113.4130000000	54
113.4430000000	44
113.4730000000	44
113.5030000000	51
113.5330000000	46
113.5630000000	60
113.5930000000	57
113.6230000000	68
113.6530000000	64
113.6830000000	58
113.7130000000	49
113.7430000000	43
113.7730000000	44
113.8030000000	39
113.8330000000	35
113.8630000000	38
113.8930000000	42
113.9230000000	40
113.9530000000	39
113.9830000000	47
114.0130000000	40
114.0430000000	57
114.0730000000	47
114.1030000000	40
114.1330000000	53
114.1630000000	46
114.1930000000	50
114.2230000000	49
114.2530000000	42
114.2830000000	37
114.3130000000	36
114.3430000000	34
114.3730000000	41
114.4030000000	34
114.4330000000	50
114.4630000000	1
114.4930000000	1
114.5230000000	1
114.5530000000	1
114.5830000000	1
