0.3130000000	2
0.3430000000	1
0.3730000000	1
0.4030000000	1
0.4330000000	1
0.4630000000	1
0.4930000000	1
0.5230000000	1
0.5530000000	1
0.5830000000	1
0.6130000000	1
0.6430000000	1
0.6730000000	2
0.7030000000	2
0.7330000000	1
0.7630000000	1
0.7930000000	2
0.8230000000	1
0.8530000000	2
0.8830000000	1
0.9130000000	1
0.9430000000	1
0.9730000000	1
1.0030000000	1
1.0330000000	1
1.0630000000	1
1.0930000000	2
1.1230000000	1
1.1530000000	1
1.1830000000	1
1.2130000000	1
1.2430000000	1
1.2730000000	1
1.3030000000	3
1.3330000000	2
1.3630000000	1
1.3930000000	2
1.4230000000	2
1.4530000000	1
1.4830000000	1
1.5130000000	2
1.5430000000	2
1.5730000000	1
1.6030000000	1
1.6330000000	2
1.6630000000	1
1.6930000000	2
1.7230000000	1
1.7530000000	1
1.7830000000	1
1.8130000000	2
1.8430000000	2
1.8730000000	1
1.9030000000	1
1.9330000000	1
1.9630000000	2
1.9930000000	2
2.0230000000	1
2.0530000000	1
2.0830000000	1
2.1130000000	1
2.1430000000	2
2.1730000000	3
2.2030000000	2
2.2330000000	2
2.2630000000	2
2.2930000000	1
2.3230000000	1
2.3530000000	1
2.3830000000	2
2.4130000000	2
2.4430000000	1
2.4730000000	1
2.5030000000	1
2.5330000000	1
2.5630000000	1
2.5930000000	3
2.6230000000	3
2.6530000000	1
2.6830000000	2
2.7130000000	1
2.7430000000	2
2.7730000000	1
2.8030000000	1
2.8330000000	2
2.8630000000	3
2.8930000000	1
2.9230000000	2
2.9530000000	3
2.9830000000	1
3.0130000000	1
3.0430000000	1
3.0730000000	1
3.1030000000	2
3.1330000000	1
3.1630000000	1
3.1930000000	1
3.2230000000	2
3.2530000000	1
3.2830000000	2
3.3130000000	2
3.3430000000	1
3.3730000000	1
3.4030000000	2
3.4330000000	2
3.4630000000	2
3.4930000000	3
3.5230000000	2
3.5530000000	1
3.5830000000	1
3.6130000000	2
3.6430000000	1
3.6730000000	2
3.7030000000	2
3.7330000000	2
3.7630000000	2
3.7930000000	3
3.8230000000	1
3.8530000000	1
3.8830000000	1
3.9130000000	3
3.9430000000	3
3.9730000000	3
4.0030000000	2
4.0330000000	3
4.0630000000	2
4.0930000000	2
4.1230000000	1
4.1530000000	4
4.1830000000	1
4.2130000000	2
4.2430000000	4
4.2730000000	6
4.3030000000	2
4.3330000000	3
4.3630000000	3
4.3930000000	3
4.4230000000	5
4.4530000000	4
4.4830000000	9
4.5130000000	29
4.5430000000	28
4.5730000000	55
4.6030000000	81
4.6330000000	101
4.6630000000	96
4.6930000000	127
4.7230000000	123
4.7530000000	137
4.7830000000	131
4.8130000000	156
4.8430000000	147
4.8730000000	152
4.9030000000	136
4.9330000000	143
4.9630000000	133
4.9930000000	124
5.0230000000	141
5.0530000000	146
5.0830000000	149
5.1130000000	147
5.1430000000	138
5.1730000000	131
5.2030000000	152
5.2330000000	140
5.2630000000	159
5.2930000000	167
5.3230000000	144
5.3530000000	127
5.3830000000	164
5.4130000000	147
5.4430000000	128
5.4730000000	133
5.5030000000	135
5.5330000000	143
5.5630000000	142
5.5930000000	158
5.6230000000	161
5.6530000000	136
5.6830000000	126
5.7130000000	152
5.7430000000	132
5.7730000000	136
5.8030000000	149
5.8330000000	139
5.8630000000	125
5.8930000000	165
5.9230000000	149
5.9530000000	150
5.9830000000	149
6.0130000000	118
6.0430000000	158
6.0730000000	159
6.1030000000	132
6.1330000000	148
6.1630000000	146
6.1930000000	149
6.2230000000	153
6.2530000000	140
6.2830000000	155
6.3130000000	128
6.3430000000	134
6.3730000000	179
6.4030000000	161
6.4330000000	169
6.4630000000	149
6.4930000000	137
6.5230000000	159
6.5530000000	151
6.5830000000	155
6.6130000000	155
6.6430000000	163
6.6730000000	145
6.7030000000	158
6.7330000000	149
6.7630000000	135
6.7930000000	170
6.8230000000	138
6.8530000000	157
6.8830000000	138
6.9130000000	143
6.9430000000	143
6.9730000000	146
7.0030000000	147
7.0330000000	138
7.0630000000	150
7.0930000000	150
7.1230000000	133
7.1530000000	139
7.1830000000	148
7.2130000000	141
7.2430000000	129
7.2730000000	141
7.3030000000	151
7.3330000000	130
7.3630000000	151
7.3930000000	136
7.4230000000	144
7.4530000000	154
7.4830000000	155
7.5130000000	170
7.5430000000	150
7.5730000000	147
7.6030000000	154
7.6330000000	152
7.6630000000	141
7.6930000000	124
7.7230000000	133
7.7530000000	153
7.7830000000	139
7.8130000000	126
7.8430000000	150
7.8730000000	157
7.9030000000	130
7.9330000000	129
7.9630000000	148
7.9930000000	146
8.0230000000	140
8.0530000000	151
8.0830000000	161
8.1130000000	134
8.1430000000	153
8.1730000000	138
8.2030000000	149
8.2330000000	171
8.2630000000	146
8.2930000000	129
8.3230000000	149
8.3530000000	142
8.3830000000	118
8.4130000000	123
8.4430000000	138
8.4730000000	155
8.5030000000	138
8.5330000000	145
8.5630000000	148
8.5930000000	148
8.6230000000	138
8.6530000000	154
8.6830000000	160
8.7130000000	145
8.7430000000	180
8.7730000000	152
8.8030000000	133
8.8330000000	124
8.8630000000	114
8.8930000000	140
8.9230000000	127
8.9530000000	133
8.9830000000	161
9.0130000000	137
9.0430000000	149
9.0730000000	151
9.1030000000	151
9.1330000000	155
9.1630000000	151
9.1930000000	133
9.2230000000	117
9.2530000000	125
9.2830000000	145
9.3130000000	136
9.3430000000	143
9.3730000000	133
9.4030000000	124
9.4330000000	142
9.4630000000	127
9.4930000000	124
9.5230000000	138
9.5530000000	137
9.5830000000	145
9.6130000000	160
9.6430000000	138
9.6730000000	150
9.7030000000	147
9.7330000000	161
9.7630000000	149
9.7930000000	157
9.8230000000	150
9.8530000000	157
9.8830000000	143
9.9130000000	163
9.9430000000	156
9.9730000000	148
10.0030000000	155
10.0330000000	143
10.0630000000	146
10.0930000000	147
10.1230000000	146
10.1530000000	145
10.1830000000	134
10.2130000000	141
10.2430000000	185
10.2730000000	159
10.3030000000	132
10.3330000000	132
10.3630000000	147
10.3930000000	146
10.4230000000	129
10.4530000000	154
10.4830000000	165
10.5130000000	130
10.5430000000	147
10.5730000000	157
10.6030000000	160
10.6330000000	130
10.6630000000	137
10.6930000000	163
10.7230000000	154
10.7530000000	143
10.7830000000	149
10.8130000000	147
10.8430000000	148
10.8730000000	115
10.9030000000	158
10.9330000000	142
10.9630000000	150
10.9930000000	149
11.0230000000	151
11.0530000000	144
11.0830000000	144
11.1130000000	155
11.1430000000	152
11.1730000000	166
11.2030000000	146
11.2330000000	165
11.2630000000	141
11.2930000000	132
11.3230000000	163
11.3530000000	133
11.3830000000	176
11.4130000000	127
11.4430000000	124
11.4730000000	140
11.5030000000	142
11.5330000000	144
11.5630000000	153
11.5930000000	147
11.6230000000	155
11.6530000000	131
11.6830000000	125
11.7130000000	145
11.7430000000	154
11.7730000000	147
11.8030000000	146
11.8330000000	145
11.8630000000	158
11.8930000000	151
11.9230000000	139
11.9530000000	129
11.9830000000	129
12.0130000000	141
12.0430000000	144
12.0730000000	149
12.1030000000	148
12.1330000000	145
12.1630000000	126
12.1930000000	140
12.2230000000	143
12.2530000000	147
12.2830000000	165
12.3130000000	146
12.3430000000	142
12.3730000000	140
12.4030000000	145
12.4330000000	131
12.4630000000	152
12.4930000000	138
12.5230000000	142
12.5530000000	157
12.5830000000	155
12.6130000000	142
12.6430000000	151
12.6730000000	147
12.7030000000	159
12.7330000000	141
12.7630000000	146
12.7930000000	159
12.8230000000	156
12.8530000000	154
12.8830000000	140
12.9130000000	136
12.9430000000	151
12.9730000000	146
13.0030000000	130
13.0330000000	143
13.0630000000	161
13.0930000000	163
13.1230000000	155
13.1530000000	145
13.1830000000	146
13.2130000000	142
13.2430000000	152
13.2730000000	148
13.3030000000	158
13.3330000000	157
13.3630000000	153
13.3930000000	136
13.4230000000	157
13.4530000000	128
13.4830000000	142
13.5130000000	162
13.5430000000	143
13.5730000000	141
13.6030000000	151
13.6330000000	154
13.6630000000	136
13.6930000000	138
13.7230000000	143
13.7530000000	134
13.7830000000	149
13.8130000000	137
13.8430000000	145
13.8730000000	138
13.9030000000	133
13.9330000000	155
13.9630000000	150
13.9930000000	152
14.0230000000	134
14.0530000000	146
14.0830000000	136
14.1130000000	125
14.1430000000	138
14.1730000000	142
14.2030000000	137
14.2330000000	153
14.2630000000	139
14.2930000000	138
14.3230000000	142
14.3530000000	133
14.3830000000	133
14.4130000000	157
14.4430000000	144
14.4730000000	149
14.5030000000	151
14.5330000000	165
14.5630000000	151
14.5930000000	134
14.6230000000	133
14.6530000000	160
14.6830000000	152
14.7130000000	138
14.7430000000	163
14.7730000000	153
14.8030000000	153
14.8330000000	151
14.8630000000	138
14.8930000000	148
14.9230000000	149
14.9530000000	139
14.9830000000	159
15.0130000000	150
15.0430000000	160
15.0730000000	162
15.1030000000	140
15.1330000000	160
15.1630000000	153
15.1930000000	136
15.2230000000	167
15.2530000000	158
15.2830000000	147
15.3130000000	144
15.3430000000	149
15.3730000000	151
15.4030000000	152
15.4330000000	136
15.4630000000	151
15.4930000000	136
15.5230000000	164
15.5530000000	125
15.5830000000	143
15.6130000000	149
15.6430000000	141
15.6730000000	138
15.7030000000	150
15.7330000000	144
15.7630000000	158
15.7930000000	151
15.8230000000	155
15.8530000000	134
15.8830000000	144
15.9130000000	153
15.9430000000	150
15.9730000000	144
16.0030000000	157
16.0330000000	135
16.0630000000	143
16.0930000000	143
16.1230000000	137
16.1530000000	133
16.1830000000	148
16.2130000000	130
16.2430000000	136
16.2730000000	131
16.3030000000	144
16.3330000000	136
16.3630000000	122
16.3930000000	151
16.4230000000	143
16.4530000000	154
16.4830000000	149
16.5130000000	162
16.5430000000	148
16.5730000000	157
16.6030000000	157
16.6330000000	146
16.6630000000	163
16.6930000000	161
16.7230000000	143
16.7530000000	129
16.7830000000	144
16.8130000000	149
16.8430000000	150
16.8730000000	132
16.9030000000	142
16.9330000000	152
16.9630000000	137
16.9930000000	153
17.0230000000	166
17.0530000000	163
17.0830000000	154
17.1130000000	133
17.1430000000	144
17.1730000000	148
17.2030000000	143
17.2330000000	143
17.2630000000	141
17.2930000000	142
17.3230000000	139
17.3530000000	140
17.3830000000	156
17.4130000000	155
17.4430000000	157
17.4730000000	168
17.5030000000	170
17.5330000000	161
17.5630000000	151
17.5930000000	151
17.6230000000	146
17.6530000000	162
17.6830000000	137
17.7130000000	135
17.7430000000	156
17.7730000000	139
17.8030000000	139
17.8330000000	153
17.8630000000	138
17.8930000000	137
17.9230000000	152
17.9530000000	150
17.9830000000	139
18.0130000000	146
18.0430000000	151
18.0730000000	123
18.1030000000	149
18.1330000000	144
18.1630000000	152
18.1930000000	150
18.2230000000	137
18.2530000000	147
18.2830000000	148
18.3130000000	152
18.3430000000	157
18.3730000000	137
18.4030000000	116
18.4330000000	136
18.4630000000	141
18.4930000000	120
18.5230000000	141
18.5530000000	145
18.5830000000	127
18.6130000000	140
18.6430000000	172
18.6730000000	160
18.7030000000	152
18.7330000000	159
18.7630000000	137
18.7930000000	165
18.8230000000	128
18.8530000000	137
18.8830000000	131
18.9130000000	152
18.9430000000	146
18.9730000000	156
19.0030000000	148
19.0330000000	164
19.0630000000	144
19.0930000000	153
19.1230000000	166
19.1530000000	150
19.1830000000	171
19.2130000000	150
19.2430000000	165
19.2730000000	150
19.3030000000	173
19.3330000000	152
19.3630000000	178
19.3930000000	139
19.4230000000	186
19.4530000000	250
19.4830000000	235
19.5130000000	300
19.5430000000	333
19.5730000000	413
19.6030000000	353
19.6330000000	328
19.6630000000	296
19.6930000000	202
19.7230000000	196
19.7530000000	177
19.7830000000	163
19.8130000000	157
19.8430000000	145
19.8730000000	141
19.9030000000	137
19.9330000000	168
19.9630000000	148
19.9930000000	156
20.0230000000	145
20.0530000000	153
20.0830000000	154
20.1130000000	141
20.1430000000	126
20.1730000000	151
20.2030000000	162
20.2330000000	134
20.2630000000	157
20.2930000000	135
20.3230000000	143
20.3530000000	164
20.3830000000	165
20.4130000000	150
20.4430000000	151
20.4730000000	150
20.5030000000	134
20.5330000000	143
20.5630000000	150
20.5930000000	160
20.6230000000	163
20.6530000000	158
20.6830000000	137
20.7130000000	129
20.7430000000	140
20.7730000000	152
20.8030000000	147
20.8330000000	157
20.8630000000	134
20.8930000000	152
20.9230000000	158
20.9530000000	166
20.9830000000	173
21.0130000000	174
21.0430000000	153
21.0730000000	151
21.1030000000	144
21.1330000000	124
21.1630000000	151
21.1930000000	144
21.2230000000	153
21.2530000000	160
21.2830000000	153
21.3130000000	142
21.3430000000	155
21.3730000000	144
21.4030000000	177
21.4330000000	136
21.4630000000	144
21.4930000000	166
21.5230000000	158
21.5530000000	146
21.5830000000	134
21.6130000000	143
21.6430000000	153
21.6730000000	161
21.7030000000	141
21.7330000000	149
21.7630000000	165
21.7930000000	141
21.8230000000	165
21.8530000000	169
21.8830000000	138
21.9130000000	153
21.9430000000	161
21.9730000000	186
22.0030000000	181
22.0330000000	152
22.0630000000	150
22.0930000000	175
22.1230000000	175
22.1530000000	167
22.1830000000	176
22.2130000000	153
22.2430000000	144
22.2730000000	160
22.3030000000	177
22.3330000000	173
22.3630000000	159
22.3930000000	175
22.4230000000	182
22.4530000000	174
22.4830000000	167
22.5130000000	171
22.5430000000	170
22.5730000000	169
22.6030000000	179
22.6330000000	193
22.6630000000	211
22.6930000000	226
22.7230000000	241
22.7530000000	235
22.7830000000	199
22.8130000000	190
22.8430000000	188
22.8730000000	157
22.9030000000	157
22.9330000000	149
22.9630000000	151
22.9930000000	146
23.0230000000	184
23.0530000000	171
23.0830000000	164
23.1130000000	172
23.1430000000	155
23.1730000000	173
23.2030000000	164
23.2330000000	159
23.2630000000	167
23.2930000000	147
23.3230000000	165
23.3530000000	172
23.3830000000	171
23.4130000000	168
23.4430000000	157
23.4730000000	165
23.5030000000	169
23.5330000000	183
23.5630000000	161
23.5930000000	171
23.6230000000	174
23.6530000000	165
23.6830000000	163
23.7130000000	164
23.7430000000	159
23.7730000000	171
23.8030000000	143
23.8330000000	160
23.8630000000	176
23.8930000000	150
23.9230000000	181
23.9530000000	154
23.9830000000	181
24.0130000000	183
24.0430000000	157
24.0730000000	153
24.1030000000	136
24.1330000000	164
24.1630000000	162
24.1930000000	153
24.2230000000	178
24.2530000000	179
24.2830000000	173
24.3130000000	173
24.3430000000	173
24.3730000000	175
24.4030000000	164
24.4330000000	157
24.4630000000	174
24.4930000000	188
24.5230000000	161
24.5530000000	176
24.5830000000	161
24.6130000000	160
24.6430000000	191
24.6730000000	158
24.7030000000	174
24.7330000000	162
24.7630000000	166
24.7930000000	172
24.8230000000	187
24.8530000000	155
24.8830000000	157
24.9130000000	169
24.9430000000	188
24.9730000000	152
25.0030000000	163
25.0330000000	146
25.0630000000	196
25.0930000000	183
25.1230000000	164
25.1530000000	184
25.1830000000	154
25.2130000000	177
25.2430000000	169
25.2730000000	183
25.3030000000	177
25.3330000000	148
25.3630000000	171
25.3930000000	164
25.4230000000	171
25.4530000000	173
25.4830000000	153
25.5130000000	156
25.5430000000	163
25.5730000000	184
25.6030000000	192
25.6330000000	156
25.6630000000	175
25.6930000000	158
25.7230000000	180
25.7530000000	175
25.7830000000	178
25.8130000000	144
25.8430000000	145
25.8730000000	168
25.9030000000	147
25.9330000000	166
25.9630000000	178
25.9930000000	173
26.0230000000	163
26.0530000000	181
26.0830000000	169
26.1130000000	172
26.1430000000	141
26.1730000000	168
26.2030000000	200
26.2330000000	217
26.2630000000	285
26.2930000000	354
26.3230000000	436
26.3530000000	622
26.3830000000	797
26.4130000000	929
26.4430000000	968
26.4730000000	880
26.5030000000	672
26.5330000000	479
26.5630000000	364
26.5930000000	274
26.6230000000	237
26.6530000000	217
26.6830000000	189
26.7130000000	200
26.7430000000	203
26.7730000000	181
26.8030000000	161
26.8330000000	161
26.8630000000	152
26.8930000000	168
26.9230000000	162
26.9530000000	140
26.9830000000	145
27.0130000000	149
27.0430000000	150
27.0730000000	151
27.1030000000	151
27.1330000000	144
27.1630000000	150
27.1930000000	160
27.2230000000	138
27.2530000000	131
27.2830000000	145
27.3130000000	155
27.3430000000	127
27.3730000000	142
27.4030000000	169
27.4330000000	149
27.4630000000	163
27.4930000000	142
27.5230000000	151
27.5530000000	152
27.5830000000	153
27.6130000000	142
27.6430000000	158
27.6730000000	151
27.7030000000	155
27.7330000000	154
27.7630000000	131
27.7930000000	145
27.8230000000	141
27.8530000000	174
27.8830000000	155
27.9130000000	156
27.9430000000	141
27.9730000000	139
28.0030000000	173
28.0330000000	159
28.0630000000	146
28.0930000000	132
28.1230000000	147
28.1530000000	157
28.1830000000	156
28.2130000000	135
28.2430000000	149
28.2730000000	140
28.3030000000	144
28.3330000000	154
28.3630000000	163
28.3930000000	164
28.4230000000	158
28.4530000000	162
28.4830000000	154
28.5130000000	155
28.5430000000	153
28.5730000000	158
28.6030000000	134
28.6330000000	140
28.6630000000	144
28.6930000000	148
28.7230000000	124
28.7530000000	174
28.7830000000	148
28.8130000000	147
28.8430000000	151
28.8730000000	143
28.9030000000	144
28.9330000000	153
28.9630000000	156
28.9930000000	160
29.0230000000	162
29.0530000000	154
29.0830000000	134
29.1130000000	143
29.1430000000	135
29.1730000000	141
29.2030000000	145
29.2330000000	152
29.2630000000	132
29.2930000000	147
29.3230000000	147
29.3530000000	122
29.3830000000	145
29.4130000000	130
29.4430000000	126
29.4730000000	132
29.5030000000	129
29.5330000000	118
29.5630000000	121
29.5930000000	138
29.6230000000	137
29.6530000000	161
29.6830000000	126
29.7130000000	144
29.7430000000	128
29.7730000000	140
29.8030000000	150
29.8330000000	156
29.8630000000	113
29.8930000000	149
29.9230000000	145
29.9530000000	156
29.9830000000	139
30.0130000000	169
30.0430000000	158
30.0730000000	159
30.1030000000	158
30.1330000000	176
30.1630000000	193
30.1930000000	191
30.2230000000	297
30.2530000000	402
30.2830000000	553
30.3130000000	819
30.3430000000	1204
30.3730000000	1821
30.4030000000	2462
30.4330000000	2670
30.4630000000	2526
30.4930000000	2085
30.5230000000	1481
30.5530000000	1005
30.5830000000	637
30.6130000000	442
30.6430000000	297
30.6730000000	238
30.7030000000	195
30.7330000000	192
30.7630000000	156
30.7930000000	139
30.8230000000	161
30.8530000000	147
30.8830000000	145
30.9130000000	153
30.9430000000	128
30.9730000000	137
31.0030000000	140
31.0330000000	113
31.0630000000	145
31.0930000000	150
31.1230000000	148
31.1530000000	121
31.1830000000	151
31.2130000000	138
31.2430000000	139
31.2730000000	112
31.3030000000	135
31.3330000000	135
31.3630000000	124
31.3930000000	124
31.4230000000	133
31.4530000000	135
31.4830000000	161
31.5130000000	124
31.5430000000	152
31.5730000000	149
31.6030000000	156
31.6330000000	156
31.6630000000	166
31.6930000000	232
31.7230000000	299
31.7530000000	386
31.7830000000	606
31.8130000000	772
31.8430000000	1209
31.8730000000	1575
31.9030000000	1696
31.9330000000	1525
31.9630000000	1197
31.9930000000	912
32.0230000000	816
32.0530000000	844
32.0830000000	953
32.1130000000	1136
32.1430000000	1237
32.1730000000	1154
32.2030000000	957
32.2330000000	726
32.2630000000	561
32.2930000000	384
32.3230000000	289
32.3530000000	203
32.3830000000	160
32.4130000000	140
32.4430000000	144
32.4730000000	124
32.5030000000	107
32.5330000000	128
32.5630000000	96
32.5930000000	111
32.6230000000	144
32.6530000000	107
32.6830000000	110
32.7130000000	113
32.7430000000	125
32.7730000000	109
32.8030000000	94
32.8330000000	127
32.8630000000	132
32.8930000000	109
32.9230000000	103
32.9530000000	92
32.9830000000	104
33.0130000000	106
33.0430000000	104
33.0730000000	94
33.1030000000	116
33.1330000000	125
33.1630000000	123
33.1930000000	112
33.2230000000	104
33.2530000000	119
33.2830000000	123
33.3130000000	125
33.3430000000	146
33.3730000000	139
33.4030000000	124
33.4330000000	128
33.4630000000	116
33.4930000000	97
33.5230000000	124
33.5530000000	108
33.5830000000	94
33.6130000000	117
33.6430000000	111
33.6730000000	102
33.7030000000	100
33.7330000000	104
33.7630000000	89
33.7930000000	102
33.8230000000	104
33.8530000000	95
33.8830000000	96
33.9130000000	97
33.9430000000	95
33.9730000000	92
34.0030000000	102
34.0330000000	87
34.0630000000	108
34.0930000000	109
34.1230000000	90
34.1530000000	101
34.1830000000	100
34.2130000000	104
34.2430000000	115
34.2730000000	102
34.3030000000	82
34.3330000000	95
34.3630000000	100
34.3930000000	115
34.4230000000	115
34.4530000000	115
34.4830000000	96
34.5130000000	89
34.5430000000	103
34.5730000000	95
34.6030000000	86
34.6330000000	100
34.6630000000	91
34.6930000000	105
34.7230000000	101
34.7530000000	101
34.7830000000	115
34.8130000000	92
34.8430000000	94
34.8730000000	99
34.9030000000	109
34.9330000000	100
34.9630000000	97
34.9930000000	104
35.0230000000	97
35.0530000000	85
35.0830000000	86
35.1130000000	104
35.1430000000	117
35.1730000000	124
35.2030000000	109
35.2330000000	130
35.2630000000	165
35.2930000000	218
35.3230000000	229
35.3530000000	261
35.3830000000	268
35.4130000000	253
35.4430000000	222
35.4730000000	179
35.5030000000	149
35.5330000000	138
35.5630000000	122
35.5930000000	115
35.6230000000	105
35.6530000000	102
35.6830000000	101
35.7130000000	107
35.7430000000	98
35.7730000000	90
35.8030000000	100
35.8330000000	96
35.8630000000	90
35.8930000000	93
35.9230000000	90
35.9530000000	94
35.9830000000	100
36.0130000000	87
36.0430000000	93
36.0730000000	87
36.1030000000	97
36.1330000000	94
36.1630000000	87
36.1930000000	90
36.2230000000	94
36.2530000000	109
36.2830000000	92
36.3130000000	98
36.3430000000	89
36.3730000000	111
36.4030000000	118
36.4330000000	113
36.4630000000	119
36.4930000000	140
36.5230000000	185
36.5530000000	205
36.5830000000	271
36.6130000000	352
36.6430000000	399
36.6730000000	446
36.7030000000	380
36.7330000000	306
36.7630000000	293
36.7930000000	190
36.8230000000	152
36.8530000000	137
36.8830000000	116
36.9130000000	102
36.9430000000	84
36.9730000000	91
37.0030000000	82
37.0330000000	79
37.0630000000	97
37.0930000000	90
37.1230000000	91
37.1530000000	102
37.1830000000	86
37.2130000000	81
37.2430000000	73
37.2730000000	80
37.3030000000	87
37.3330000000	84
37.3630000000	89
37.3930000000	92
37.4230000000	83
37.4530000000	82
37.4830000000	80
37.5130000000	77
37.5430000000	85
37.5730000000	84
37.6030000000	94
37.6330000000	92
37.6630000000	86
37.6930000000	81
37.7230000000	83
37.7530000000	91
37.7830000000	90
37.8130000000	83
37.8430000000	93
37.8730000000	85
37.9030000000	84
37.9330000000	87
37.9630000000	89
37.9930000000	92
38.0230000000	84
38.0530000000	77
38.0830000000	89
38.1130000000	88
38.1430000000	90
38.1730000000	76
38.2030000000	83
38.2330000000	88
38.2630000000	82
38.2930000000	90
38.3230000000	95
38.3530000000	86
38.3830000000	87
38.4130000000	88
38.4430000000	78
38.4730000000	82
38.5030000000	85
38.5330000000	75
38.5630000000	93
38.5930000000	103
38.6230000000	87
38.6530000000	79
38.6830000000	76
38.7130000000	88
38.7430000000	90
38.7730000000	85
38.8030000000	94
38.8330000000	94
38.8630000000	82
38.8930000000	91
38.9230000000	99
38.9530000000	99
38.9830000000	97
39.0130000000	86
39.0430000000	95
39.0730000000	81
39.1030000000	97
39.1330000000	107
39.1630000000	93
39.1930000000	95
39.2230000000	97
39.2530000000	97
39.2830000000	89
39.3130000000	81
39.3430000000	99
39.3730000000	100
39.4030000000	85
39.4330000000	118
39.4630000000	100
39.4930000000	121
39.5230000000	125
39.5530000000	133
39.5830000000	190
39.6130000000	257
39.6430000000	378
39.6730000000	579
39.7030000000	834
39.7330000000	1113
39.7630000000	1227
39.7930000000	1164
39.8230000000	969
39.8530000000	780
39.8830000000	562
39.9130000000	359
39.9430000000	273
39.9730000000	169
40.0030000000	152
40.0330000000	118
40.0630000000	99
40.0930000000	88
40.1230000000	100
40.1530000000	102
40.1830000000	107
40.2130000000	95
40.2430000000	85
40.2730000000	76
40.3030000000	96
40.3330000000	92
40.3630000000	71
40.3930000000	102
40.4230000000	79
40.4530000000	95
40.4830000000	97
40.5130000000	94
40.5430000000	94
40.5730000000	86
40.6030000000	88
40.6330000000	88
40.6630000000	99
40.6930000000	93
40.7230000000	61
40.7530000000	94
40.7830000000	83
40.8130000000	78
40.8430000000	82
40.8730000000	79
40.9030000000	94
40.9330000000	83
40.9630000000	96
40.9930000000	83
41.0230000000	89
41.0530000000	89
41.0830000000	86
41.1130000000	95
41.1430000000	84
41.1730000000	85
41.2030000000	90
41.2330000000	88
41.2630000000	84
41.2930000000	94
41.3230000000	85
41.3530000000	88
41.3830000000	81
41.4130000000	81
41.4430000000	75
41.4730000000	78
41.5030000000	72
41.5330000000	90
41.5630000000	85
41.5930000000	78
41.6230000000	83
41.6530000000	82
41.6830000000	83
41.7130000000	77
41.7430000000	77
41.7730000000	84
41.8030000000	96
41.8330000000	84
41.8630000000	86
41.8930000000	82
41.9230000000	95
41.9530000000	102
41.9830000000	90
42.0130000000	67
42.0430000000	82
42.0730000000	91
42.1030000000	80
42.1330000000	71
42.1630000000	72
42.1930000000	92
42.2230000000	76
42.2530000000	75
42.2830000000	85
42.3130000000	82
42.3430000000	82
42.3730000000	91
42.4030000000	90
42.4330000000	82
42.4630000000	94
42.4930000000	86
42.5230000000	76
42.5530000000	79
42.5830000000	78
42.6130000000	75
42.6430000000	81
42.6730000000	92
42.7030000000	89
42.7330000000	78
42.7630000000	88
42.7930000000	102
42.8230000000	88
42.8530000000	110
42.8830000000	94
42.9130000000	81
42.9430000000	93
42.9730000000	146
43.0030000000	147
43.0330000000	179
43.0630000000	253
43.0930000000	314
43.1230000000	481
43.1530000000	737
43.1830000000	1079
43.2130000000	1285
43.2430000000	1266
43.2730000000	1206
43.3030000000	1067
43.3330000000	832
43.3630000000	554
43.3930000000	363
43.4230000000	242
43.4530000000	193
43.4830000000	140
43.5130000000	113
43.5430000000	118
43.5730000000	93
43.6030000000	107
43.6330000000	101
43.6630000000	127
43.6930000000	98
43.7230000000	121
43.7530000000	108
43.7830000000	131
43.8130000000	125
43.8430000000	90
43.8730000000	114
43.9030000000	104
43.9330000000	102
43.9630000000	87
43.9930000000	78
44.0230000000	71
44.0530000000	70
44.0830000000	65
44.1130000000	82
44.1430000000	77
44.1730000000	76
44.2030000000	80
44.2330000000	65
44.2630000000	83
44.2930000000	68
44.3230000000	74
44.3530000000	70
44.3830000000	59
44.4130000000	73
44.4430000000	76
44.4730000000	65
44.5030000000	65
44.5330000000	71
44.5630000000	67
44.5930000000	66
44.6230000000	74
44.6530000000	72
44.6830000000	68
44.7130000000	81
44.7430000000	86
44.7730000000	81
44.8030000000	80
44.8330000000	88
44.8630000000	110
44.8930000000	132
44.9230000000	164
44.9530000000	216
44.9830000000	314
45.0130000000	432
45.0430000000	584
45.0730000000	752
45.1030000000	842
45.1330000000	822
45.1630000000	730
45.1930000000	594
45.2230000000	453
45.2530000000	335
45.2830000000	233
45.3130000000	159
45.3430000000	141
45.3730000000	99
45.4030000000	80
45.4330000000	87
45.4630000000	72
45.4930000000	70
45.5230000000	71
45.5530000000	76
45.5830000000	86
45.6130000000	68
45.6430000000	66
45.6730000000	73
45.7030000000	62
45.7330000000	73
45.7630000000	92
45.7930000000	80
45.8230000000	77
45.8530000000	81
45.8830000000	77
45.9130000000	91
45.9430000000	98
45.9730000000	131
46.0030000000	112
46.0330000000	142
46.0630000000	180
46.0930000000	196
46.1230000000	196
46.1530000000	173
46.1830000000	177
46.2130000000	131
46.2430000000	124
46.2730000000	116
46.3030000000	87
46.3330000000	77
46.3630000000	103
46.3930000000	85
46.4230000000	101
46.4530000000	106
46.4830000000	110
46.5130000000	128
46.5430000000	101
46.5730000000	83
46.6030000000	97
46.6330000000	102
46.6630000000	76
46.6930000000	69
46.7230000000	78
46.7530000000	76
46.7830000000	87
46.8130000000	89
46.8430000000	98
46.8730000000	120
46.9030000000	139
46.9330000000	181
46.9630000000	223
46.9930000000	267
47.0230000000	235
47.0530000000	241
47.0830000000	227
47.1130000000	204
47.1430000000	169
47.1730000000	119
47.2030000000	87
47.2330000000	73
47.2630000000	57
47.2930000000	66
47.3230000000	60
47.3530000000	70
47.3830000000	63
47.4130000000	56
47.4430000000	74
47.4730000000	90
47.5030000000	95
47.5330000000	88
47.5630000000	73
47.5930000000	93
47.6230000000	74
47.6530000000	84
47.6830000000	75
47.7130000000	78
47.7430000000	71
47.7730000000	73
47.8030000000	58
47.8330000000	56
47.8630000000	78
47.8930000000	72
47.9230000000	57
47.9530000000	50
47.9830000000	56
48.0130000000	65
48.0430000000	49
48.0730000000	67
48.1030000000	79
48.1330000000	63
48.1630000000	46
48.1930000000	63
48.2230000000	52
48.2530000000	51
48.2830000000	51
48.3130000000	74
48.3430000000	58
48.3730000000	63
48.4030000000	62
48.4330000000	57
48.4630000000	54
48.4930000000	52
48.5230000000	54
48.5530000000	52
48.5830000000	65
48.6130000000	63
48.6430000000	60
48.6730000000	67
48.7030000000	46
48.7330000000	57
48.7630000000	58
48.7930000000	61
48.8230000000	49
48.8530000000	69
48.8830000000	63
48.9130000000	63
48.9430000000	66
48.9730000000	56
49.0030000000	51
49.0330000000	41
49.0630000000	58
49.0930000000	51
49.1230000000	60
49.1530000000	62
49.1830000000	57
49.2130000000	57
49.2430000000	62
49.2730000000	66
49.3030000000	64
49.3330000000	64
49.3630000000	54
49.3930000000	68
49.4230000000	44
49.4530000000	48
49.4830000000	60
49.5130000000	60
49.5430000000	52
49.5730000000	62
49.6030000000	50
49.6330000000	58
49.6630000000	53
49.6930000000	59
49.7230000000	64
49.7530000000	69
49.7830000000	66
49.8130000000	51
49.8430000000	55
49.8730000000	50
49.9030000000	64
49.9330000000	56
49.9630000000	43
49.9930000000	60
50.0230000000	64
50.0530000000	49
50.0830000000	56
50.1130000000	50
50.1430000000	54
50.1730000000	63
50.2030000000	67
50.2330000000	57
50.2630000000	63
50.2930000000	53
50.3230000000	62
50.3530000000	53
50.3830000000	52
50.4130000000	58
50.4430000000	62
50.4730000000	74
50.5030000000	86
50.5330000000	79
50.5630000000	93
50.5930000000	81
50.6230000000	106
50.6530000000	79
50.6830000000	61
50.7130000000	66
50.7430000000	62
50.7730000000	55
50.8030000000	51
50.8330000000	48
50.8630000000	59
50.8930000000	45
50.9230000000	42
50.9530000000	43
50.9830000000	59
51.0130000000	57
51.0430000000	44
51.0730000000	41
51.1030000000	61
51.1330000000	56
51.1630000000	43
51.1930000000	44
51.2230000000	47
51.2530000000	50
51.2830000000	48
51.3130000000	40
51.3430000000	56
51.3730000000	52
51.4030000000	43
51.4330000000	42
51.4630000000	48
51.4930000000	49
51.5230000000	56
51.5530000000	52
51.5830000000	67
51.6130000000	51
51.6430000000	51
51.6730000000	62
51.7030000000	62
51.7330000000	50
51.7630000000	47
51.7930000000	47
51.8230000000	52
51.8530000000	54
51.8830000000	60
51.9130000000	58
51.9430000000	54
51.9730000000	56
52.0030000000	58
52.0330000000	67
52.0630000000	77
52.0930000000	65
52.1230000000	67
52.1530000000	76
52.1830000000	65
52.2130000000	81
52.2430000000	80
52.2730000000	95
52.3030000000	65
52.3330000000	72
52.3630000000	72
52.3930000000	55
52.4230000000	51
52.4530000000	59
52.4830000000	51
52.5130000000	49
52.5430000000	61
52.5730000000	55
52.6030000000	60
52.6330000000	36
52.6630000000	51
52.6930000000	48
52.7230000000	60
52.7530000000	61
52.7830000000	53
52.8130000000	56
52.8430000000	36
52.8730000000	58
52.9030000000	43
52.9330000000	43
52.9630000000	47
52.9930000000	50
53.0230000000	44
53.0530000000	51
53.0830000000	60
53.1130000000	47
53.1430000000	53
53.1730000000	61
53.2030000000	46
53.2330000000	58
53.2630000000	49
53.2930000000	49
53.3230000000	51
53.3530000000	44
53.3830000000	52
53.4130000000	56
53.4430000000	49
53.4730000000	54
53.5030000000	38
53.5330000000	47
53.5630000000	64
53.5930000000	50
53.6230000000	47
53.6530000000	48
53.6830000000	60
53.7130000000	73
53.7430000000	56
53.7730000000	54
53.8030000000	65
53.8330000000	90
53.8630000000	101
53.8930000000	95
53.9230000000	141
53.9530000000	120
53.9830000000	98
54.0130000000	112
54.0430000000	105
54.0730000000	87
54.1030000000	72
54.1330000000	62
54.1630000000	41
54.1930000000	56
54.2230000000	59
54.2530000000	50
54.2830000000	50
54.3130000000	53
54.3430000000	55
54.3730000000	50
54.4030000000	61
54.4330000000	46
54.4630000000	49
54.4930000000	55
54.5230000000	59
54.5530000000	40
54.5830000000	47
54.6130000000	44
54.6430000000	37
54.6730000000	46
54.7030000000	45
54.7330000000	61
54.7630000000	60
54.7930000000	48
54.8230000000	51
54.8530000000	49
54.8830000000	53
54.9130000000	83
54.9430000000	79
54.9730000000	81
55.0030000000	111
55.0330000000	97
55.0630000000	124
55.0930000000	124
55.1230000000	109
55.1530000000	89
55.1830000000	91
55.2130000000	81
55.2430000000	85
55.2730000000	74
55.3030000000	71
55.3330000000	65
55.3630000000	66
55.3930000000	100
55.4230000000	109
55.4530000000	125
55.4830000000	132
55.5130000000	125
55.5430000000	109
55.5730000000	111
55.6030000000	110
55.6330000000	85
55.6630000000	86
55.6930000000	68
55.7230000000	61
55.7530000000	50
55.7830000000	52
55.8130000000	43
55.8430000000	42
55.8730000000	41
55.9030000000	41
55.9330000000	54
55.9630000000	41
55.9930000000	45
56.0230000000	51
56.0530000000	40
56.0830000000	54
56.1130000000	51
56.1430000000	61
56.1730000000	33
56.2030000000	45
56.2330000000	44
56.2630000000	42
56.2930000000	43
56.3230000000	47
56.3530000000	39
56.3830000000	46
56.4130000000	44
56.4430000000	41
56.4730000000	51
56.5030000000	49
56.5330000000	47
56.5630000000	54
56.5930000000	44
56.6230000000	57
56.6530000000	48
56.6830000000	41
56.7130000000	42
56.7430000000	44
56.7730000000	39
56.8030000000	59
56.8330000000	45
56.8630000000	47
56.8930000000	45
56.9230000000	48
56.9530000000	46
56.9830000000	47
57.0130000000	45
57.0430000000	42
57.0730000000	37
57.1030000000	40
57.1330000000	50
57.1630000000	53
57.1930000000	49
57.2230000000	38
57.2530000000	53
57.2830000000	50
57.3130000000	50
57.3430000000	42
57.3730000000	59
57.4030000000	46
57.4330000000	50
57.4630000000	39
57.4930000000	42
57.5230000000	42
57.5530000000	49
57.5830000000	47
57.6130000000	47
57.6430000000	51
57.6730000000	48
57.7030000000	34
57.7330000000	51
57.7630000000	42
57.7930000000	35
57.8230000000	51
57.8530000000	54
57.8830000000	52
57.9130000000	43
57.9430000000	58
57.9730000000	57
58.0030000000	36
58.0330000000	42
58.0630000000	39
58.0930000000	51
58.1230000000	39
58.1530000000	39
58.1830000000	43
58.2130000000	32
58.2430000000	46
58.2730000000	52
58.3030000000	57
58.3330000000	43
58.3630000000	39
58.3930000000	46
58.4230000000	42
58.4530000000	36
58.4830000000	41
58.5130000000	45
58.5430000000	47
58.5730000000	58
58.6030000000	45
58.6330000000	38
58.6630000000	49
58.6930000000	35
58.7230000000	38
58.7530000000	47
58.7830000000	51
58.8130000000	30
58.8430000000	31
58.8730000000	34
58.9030000000	47
58.9330000000	49
58.9630000000	42
58.9930000000	50
59.0230000000	44
59.0530000000	40
59.0830000000	45
59.1130000000	45
59.1430000000	40
59.1730000000	48
59.2030000000	43
59.2330000000	31
59.2630000000	38
59.2930000000	40
59.3230000000	47
59.3530000000	42
59.3830000000	47
59.4130000000	54
59.4430000000	42
59.4730000000	42
59.5030000000	43
59.5330000000	46
59.5630000000	56
59.5930000000	48
59.6230000000	58
59.6530000000	56
59.6830000000	40
59.7130000000	50
59.7430000000	50
59.7730000000	49
59.8030000000	35
59.8330000000	48
59.8630000000	41
59.8930000000	44
59.9230000000	44
59.9530000000	45
59.9830000000	55
60.0130000000	45
60.0430000000	47
60.0730000000	50
60.1030000000	43
60.1330000000	56
60.1630000000	64
60.1930000000	87
60.2230000000	117
60.2530000000	146
60.2830000000	128
60.3130000000	146
60.3430000000	148
60.3730000000	127
60.4030000000	109
60.4330000000	98
60.4630000000	81
60.4930000000	90
60.5230000000	49
60.5530000000	52
60.5830000000	46
60.6130000000	48
60.6430000000	44
60.6730000000	55
60.7030000000	57
60.7330000000	45
60.7630000000	42
60.7930000000	59
60.8230000000	41
60.8530000000	40
60.8830000000	49
60.9130000000	42
60.9430000000	50
60.9730000000	48
61.0030000000	41
61.0330000000	41
61.0630000000	51
61.0930000000	49
61.1230000000	46
61.1530000000	54
61.1830000000	52
61.2130000000	43
61.2430000000	55
61.2730000000	45
61.3030000000	55
61.3330000000	64
61.3630000000	41
61.3930000000	63
61.4230000000	66
61.4530000000	73
61.4830000000	91
61.5130000000	94
61.5430000000	126
61.5730000000	116
61.6030000000	116
61.6330000000	98
61.6630000000	92
61.6930000000	103
61.7230000000	104
61.7530000000	65
61.7830000000	61
61.8130000000	50
61.8430000000	50
61.8730000000	51
61.9030000000	47
61.9330000000	58
61.9630000000	40
61.9930000000	39
62.0230000000	45
62.0530000000	38
62.0830000000	47
62.1130000000	55
62.1430000000	36
62.1730000000	40
62.2030000000	37
62.2330000000	45
62.2630000000	45
62.2930000000	41
62.3230000000	43
62.3530000000	46
62.3830000000	48
62.4130000000	34
62.4430000000	44
62.4730000000	38
62.5030000000	45
62.5330000000	37
62.5630000000	34
62.5930000000	50
62.6230000000	52
62.6530000000	38
62.6830000000	29
62.7130000000	38
62.7430000000	50
62.7730000000	43
62.8030000000	49
62.8330000000	36
62.8630000000	43
62.8930000000	49
62.9230000000	47
62.9530000000	38
62.9830000000	44
63.0130000000	47
63.0430000000	48
63.0730000000	43
63.1030000000	45
63.1330000000	39
63.1630000000	42
63.1930000000	44
63.2230000000	44
63.2530000000	48
63.2830000000	48
63.3130000000	44
63.3430000000	43
63.3730000000	51
63.4030000000	57
63.4330000000	51
63.4630000000	32
63.4930000000	35
63.5230000000	45
63.5530000000	54
63.5830000000	42
63.6130000000	50
63.6430000000	42
63.6730000000	43
63.7030000000	45
63.7330000000	46
63.7630000000	54
63.7930000000	41
63.8230000000	32
63.8530000000	41
63.8830000000	36
63.9130000000	40
63.9430000000	43
63.9730000000	48
64.0030000000	37
64.0330000000	42
64.0630000000	35
64.0930000000	32
64.1230000000	46
64.1530000000	47
64.1830000000	47
64.2130000000	38
64.2430000000	42
64.2730000000	43
64.3030000000	54
64.3330000000	38
64.3630000000	37
64.3930000000	34
64.4230000000	36
64.4530000000	30
64.4830000000	38
64.5130000000	40
64.5430000000	36
64.5730000000	41
64.6030000000	54
64.6330000000	55
64.6630000000	52
64.6930000000	58
64.7230000000	58
64.7530000000	51
64.7830000000	47
64.8130000000	45
64.8430000000	55
64.8730000000	45
64.9030000000	42
64.9330000000	44
64.9630000000	41
64.9930000000	45
65.0230000000	60
65.0530000000	41
65.0830000000	35
65.1130000000	34
65.1430000000	43
65.1730000000	56
65.2030000000	42
65.2330000000	44
65.2630000000	34
65.2930000000	47
65.3230000000	43
65.3530000000	43
65.3830000000	46
65.4130000000	51
65.4430000000	45
65.4730000000	47
65.5030000000	50
65.5330000000	35
65.5630000000	39
65.5930000000	44
65.6230000000	36
65.6530000000	40
65.6830000000	33
65.7130000000	36
65.7430000000	39
65.7730000000	44
65.8030000000	36
65.8330000000	42
65.8630000000	40
65.8930000000	44
65.9230000000	38
65.9530000000	55
65.9830000000	52
66.0130000000	47
66.0430000000	54
66.0730000000	58
66.1030000000	69
66.1330000000	63
66.1630000000	74
66.1930000000	81
66.2230000000	106
66.2530000000	136
66.2830000000	153
66.3130000000	178
66.3430000000	152
66.3730000000	147
66.4030000000	122
66.4330000000	108
66.4630000000	97
66.4930000000	90
66.5230000000	81
66.5530000000	71
66.5830000000	53
66.6130000000	45
66.6430000000	62
66.6730000000	56
66.7030000000	66
66.7330000000	39
66.7630000000	47
66.7930000000	47
66.8230000000	47
66.8530000000	36
66.8830000000	45
66.9130000000	39
66.9430000000	36
66.9730000000	33
67.0030000000	41
67.0330000000	38
67.0630000000	34
67.0930000000	44
67.1230000000	40
67.1530000000	39
67.1830000000	51
67.2130000000	52
67.2430000000	38
67.2730000000	43
67.3030000000	39
67.3330000000	44
67.3630000000	39
67.3930000000	45
67.4230000000	46
67.4530000000	39
67.4830000000	46
67.5130000000	43
67.5430000000	40
67.5730000000	36
67.6030000000	43
67.6330000000	39
67.6630000000	46
67.6930000000	36
67.7230000000	34
67.7530000000	41
67.7830000000	44
67.8130000000	39
67.8430000000	39
67.8730000000	43
67.9030000000	40
67.9330000000	38
67.9630000000	43
67.9930000000	41
68.0230000000	40
68.0530000000	42
68.0830000000	44
68.1130000000	42
68.1430000000	41
68.1730000000	41
68.2030000000	43
68.2330000000	56
68.2630000000	45
68.2930000000	39
68.3230000000	31
68.3530000000	31
68.3830000000	41
68.4130000000	46
68.4430000000	31
68.4730000000	30
68.5030000000	46
68.5330000000	45
68.5630000000	41
68.5930000000	40
68.6230000000	46
68.6530000000	42
68.6830000000	26
68.7130000000	40
68.7430000000	44
68.7730000000	42
68.8030000000	45
68.8330000000	44
68.8630000000	45
68.8930000000	46
68.9230000000	46
68.9530000000	36
68.9830000000	46
69.0130000000	48
69.0430000000	38
69.0730000000	33
69.1030000000	30
69.1330000000	35
69.1630000000	47
69.1930000000	45
69.2230000000	53
69.2530000000	41
69.2830000000	46
69.3130000000	59
69.3430000000	39
69.3730000000	49
69.4030000000	40
69.4330000000	51
69.4630000000	47
69.4930000000	46
69.5230000000	46
69.5530000000	56
69.5830000000	49
69.6130000000	50
69.6430000000	47
69.6730000000	46
69.7030000000	43
69.7330000000	38
69.7630000000	37
69.7930000000	39
69.8230000000	44
69.8530000000	39
69.8830000000	42
69.9130000000	51
69.9430000000	43
69.9730000000	41
70.0030000000	48
70.0330000000	33
70.0630000000	31
70.0930000000	41
70.1230000000	37
70.1530000000	34
70.1830000000	39
70.2130000000	42
70.2430000000	40
70.2730000000	30
70.3030000000	40
70.3330000000	47
70.3630000000	44
70.3930000000	37
70.4230000000	43
70.4530000000	35
70.4830000000	37
70.5130000000	33
70.5430000000	40
70.5730000000	43
70.6030000000	42
70.6330000000	39
70.6630000000	27
70.6930000000	45
70.7230000000	39
70.7530000000	29
70.7830000000	41
70.8130000000	31
70.8430000000	47
70.8730000000	31
70.9030000000	44
70.9330000000	36
70.9630000000	44
70.9930000000	51
71.0230000000	43
71.0530000000	35
71.0830000000	36
71.1130000000	45
71.1430000000	34
71.1730000000	36
71.2030000000	42
71.2330000000	42
71.2630000000	40
71.2930000000	33
71.3230000000	29
71.3530000000	37
71.3830000000	41
71.4130000000	30
71.4430000000	43
71.4730000000	57
71.5030000000	52
71.5330000000	52
71.5630000000	42
71.5930000000	37
71.6230000000	40
71.6530000000	38
71.6830000000	43
71.7130000000	45
71.7430000000	30
71.7730000000	39
71.8030000000	43
71.8330000000	36
71.8630000000	50
71.8930000000	49
71.9230000000	52
71.9530000000	47
71.9830000000	38
72.0130000000	55
72.0430000000	57
72.0730000000	54
72.1030000000	69
72.1330000000	52
72.1630000000	57
72.1930000000	58
72.2230000000	61
72.2530000000	62
72.2830000000	67
72.3130000000	68
72.3430000000	74
72.3730000000	75
72.4030000000	88
72.4330000000	116
72.4630000000	91
72.4930000000	78
72.5230000000	85
72.5530000000	82
72.5830000000	87
72.6130000000	79
72.6430000000	82
72.6730000000	64
72.7030000000	64
72.7330000000	69
72.7630000000	73
72.7930000000	82
72.8230000000	93
72.8530000000	107
72.8830000000	150
72.9130000000	177
72.9430000000	163
72.9730000000	155
73.0030000000	138
73.0330000000	121
73.0630000000	109
73.0930000000	127
73.1230000000	99
73.1530000000	91
73.1830000000	93
73.2130000000	79
73.2430000000	61
73.2730000000	55
73.3030000000	50
73.3330000000	58
73.3630000000	49
73.3930000000	55
73.4230000000	47
73.4530000000	38
73.4830000000	39
73.5130000000	36
73.5430000000	41
73.5730000000	48
73.6030000000	45
73.6330000000	39
73.6630000000	42
73.6930000000	50
73.7230000000	45
73.7530000000	35
73.7830000000	50
73.8130000000	50
73.8430000000	42
73.8730000000	50
73.9030000000	35
73.9330000000	39
73.9630000000	35
73.9930000000	45
74.0230000000	40
74.0530000000	37
74.0830000000	46
74.1130000000	38
74.1430000000	45
74.1730000000	50
74.2030000000	50
74.2330000000	37
74.2630000000	49
74.2930000000	44
74.3230000000	53
74.3530000000	41
74.3830000000	37
74.4130000000	31
74.4430000000	40
74.4730000000	45
74.5030000000	43
74.5330000000	38
74.5630000000	40
74.5930000000	43
74.6230000000	41
74.6530000000	40
74.6830000000	38
74.7130000000	45
74.7430000000	54
74.7730000000	55
74.8030000000	69
74.8330000000	68
74.8630000000	68
74.8930000000	55
74.9230000000	47
74.9530000000	42
74.9830000000	50
75.0130000000	53
75.0430000000	48
75.0730000000	51
75.1030000000	48
75.1330000000	56
75.1630000000	36
75.1930000000	51
75.2230000000	38
75.2530000000	53
75.2830000000	44
75.3130000000	53
75.3430000000	46
75.3730000000	37
75.4030000000	42
75.4330000000	43
75.4630000000	36
75.4930000000	42
75.5230000000	49
75.5530000000	47
75.5830000000	44
75.6130000000	34
75.6430000000	35
75.6730000000	34
75.7030000000	43
75.7330000000	53
75.7630000000	39
75.7930000000	43
75.8230000000	43
75.8530000000	26
75.8830000000	40
75.9130000000	41
75.9430000000	42
75.9730000000	41
76.0030000000	38
76.0330000000	38
76.0630000000	35
76.0930000000	40
76.1230000000	49
76.1530000000	36
76.1830000000	35
76.2130000000	56
76.2430000000	37
76.2730000000	25
76.3030000000	46
76.3330000000	34
76.3630000000	30
76.3930000000	45
76.4230000000	28
76.4530000000	36
76.4830000000	35
76.5130000000	48
76.5430000000	34
76.5730000000	46
76.6030000000	37
76.6330000000	50
76.6630000000	44
76.6930000000	44
76.7230000000	38
76.7530000000	39
76.7830000000	34
76.8130000000	44
76.8430000000	37
76.8730000000	49
76.9030000000	44
76.9330000000	38
76.9630000000	39
76.9930000000	37
77.0230000000	31
77.0530000000	36
77.0830000000	46
77.1130000000	28
77.1430000000	31
77.1730000000	31
77.2030000000	46
77.2330000000	31
77.2630000000	32
77.2930000000	41
77.3230000000	31
77.3530000000	43
77.3830000000	46
77.4130000000	50
77.4430000000	60
77.4730000000	56
77.5030000000	68
77.5330000000	67
77.5630000000	69
77.5930000000	79
77.6230000000	73
77.6530000000	64
77.6830000000	60
77.7130000000	72
77.7430000000	55
77.7730000000	62
77.8030000000	64
77.8330000000	54
77.8630000000	68
77.8930000000	58
77.9230000000	50
77.9530000000	43
77.9830000000	46
78.0130000000	56
78.0430000000	59
78.0730000000	42
78.1030000000	45
78.1330000000	50
78.1630000000	43
78.1930000000	42
78.2230000000	40
78.2530000000	50
78.2830000000	46
78.3130000000	44
78.3430000000	44
78.3730000000	41
78.4030000000	35
78.4330000000	41
78.4630000000	45
78.4930000000	44
78.5230000000	40
78.5530000000	53
78.5830000000	38
78.6130000000	44
78.6430000000	34
78.6730000000	49
78.7030000000	44
78.7330000000	56
78.7630000000	41
78.7930000000	47
78.8230000000	49
78.8530000000	45
78.8830000000	51
78.9130000000	57
78.9430000000	42
78.9730000000	44
79.0030000000	55
79.0330000000	42
79.0630000000	31
79.0930000000	25
79.1230000000	29
79.1530000000	39
79.1830000000	44
79.2130000000	32
79.2430000000	45
79.2730000000	47
79.3030000000	47
79.3330000000	40
79.3630000000	37
79.3930000000	28
79.4230000000	26
79.4530000000	51
79.4830000000	37
79.5130000000	35
79.5430000000	38
79.5730000000	41
79.6030000000	49
79.6330000000	38
79.6630000000	36
79.6930000000	48
79.7230000000	43
79.7530000000	45
79.7830000000	48
79.8130000000	35
79.8430000000	44
79.8730000000	40
79.9030000000	40
79.9330000000	40
79.9630000000	39
79.9930000000	44
80.0230000000	43
80.0530000000	42
80.0830000000	41
80.1130000000	45
80.1430000000	38
80.1730000000	33
80.2030000000	40
80.2330000000	43
80.2630000000	45
80.2930000000	39
80.3230000000	38
80.3530000000	41
80.3830000000	33
80.4130000000	45
80.4430000000	43
80.4730000000	47
80.5030000000	42
80.5330000000	51
80.5630000000	50
80.5930000000	52
80.6230000000	59
80.6530000000	57
80.6830000000	65
80.7130000000	60
80.7430000000	42
80.7730000000	56
80.8030000000	54
80.8330000000	41
80.8630000000	49
80.8930000000	54
80.9230000000	53
80.9530000000	46
80.9830000000	49
81.0130000000	45
81.0430000000	42
81.0730000000	43
81.1030000000	44
81.1330000000	39
81.1630000000	44
81.1930000000	33
81.2230000000	40
81.2530000000	40
81.2830000000	50
81.3130000000	36
81.3430000000	46
81.3730000000	43
81.4030000000	39
81.4330000000	42
81.4630000000	41
81.4930000000	41
81.5230000000	39
81.5530000000	56
81.5830000000	45
81.6130000000	36
81.6430000000	43
81.6730000000	43
81.7030000000	35
81.7330000000	42
81.7630000000	30
81.7930000000	31
81.8230000000	39
81.8530000000	37
81.8830000000	39
81.9130000000	31
81.9430000000	38
81.9730000000	49
82.0030000000	41
82.0330000000	37
82.0630000000	45
82.0930000000	32
82.1230000000	36
82.1530000000	30
82.1830000000	41
82.2130000000	43
82.2430000000	39
82.2730000000	41
82.3030000000	40
82.3330000000	35
82.3630000000	34
82.3930000000	32
82.4230000000	31
82.4530000000	37
82.4830000000	41
82.5130000000	46
82.5430000000	31
82.5730000000	35
82.6030000000	39
82.6330000000	29
82.6630000000	36
82.6930000000	29
82.7230000000	42
82.7530000000	37
82.7830000000	25
82.8130000000	35
82.8430000000	43
82.8730000000	45
82.9030000000	50
82.9330000000	46
82.9630000000	43
82.9930000000	35
83.0230000000	46
83.0530000000	35
83.0830000000	35
83.1130000000	35
83.1430000000	46
83.1730000000	47
83.2030000000	45
83.2330000000	37
83.2630000000	58
83.2930000000	51
83.3230000000	54
83.3530000000	52
83.3830000000	53
83.4130000000	58
83.4430000000	41
83.4730000000	45
83.5030000000	57
83.5330000000	41
83.5630000000	37
83.5930000000	60
83.6230000000	46
83.6530000000	49
83.6830000000	35
83.7130000000	36
83.7430000000	38
83.7730000000	33
83.8030000000	46
83.8330000000	31
83.8630000000	29
83.8930000000	39
83.9230000000	41
83.9530000000	35
83.9830000000	31
84.0130000000	36
84.0430000000	41
84.0730000000	37
84.1030000000	48
84.1330000000	39
84.1630000000	35
84.1930000000	32
84.2230000000	31
84.2530000000	40
84.2830000000	34
84.3130000000	43
84.3430000000	39
84.3730000000	33
84.4030000000	43
84.4330000000	36
84.4630000000	39
84.4930000000	36
84.5230000000	42
84.5530000000	45
84.5830000000	37
84.6130000000	31
84.6430000000	37
84.6730000000	26
84.7030000000	23
84.7330000000	39
84.7630000000	37
84.7930000000	43
84.8230000000	44
84.8530000000	28
84.8830000000	31
84.9130000000	47
84.9430000000	29
84.9730000000	35
85.0030000000	38
85.0330000000	31
85.0630000000	41
85.0930000000	34
85.1230000000	38
85.1530000000	35
85.1830000000	40
85.2130000000	33
85.2430000000	37
85.2730000000	28
85.3030000000	38
85.3330000000	37
85.3630000000	34
85.3930000000	40
85.4230000000	35
85.4530000000	51
85.4830000000	37
85.5130000000	36
85.5430000000	36
85.5730000000	37
85.6030000000	42
85.6330000000	58
85.6630000000	42
85.6930000000	43
85.7230000000	42
85.7530000000	39
85.7830000000	40
85.8130000000	40
85.8430000000	30
85.8730000000	41
85.9030000000	42
85.9330000000	45
85.9630000000	56
85.9930000000	47
86.0230000000	47
86.0530000000	39
86.0830000000	38
86.1130000000	31
86.1430000000	40
86.1730000000	41
86.2030000000	40
86.2330000000	31
86.2630000000	34
86.2930000000	35
86.3230000000	30
86.3530000000	34
86.3830000000	32
86.4130000000	39
86.4430000000	41
86.4730000000	38
86.5030000000	42
86.5330000000	33
86.5630000000	42
86.5930000000	41
86.6230000000	27
86.6530000000	34
86.6830000000	39
86.7130000000	38
86.7430000000	51
86.7730000000	48
86.8030000000	41
86.8330000000	43
86.8630000000	45
86.8930000000	43
86.9230000000	38
86.9530000000	40
86.9830000000	40
87.0130000000	48
87.0430000000	50
87.0730000000	44
87.1030000000	44
87.1330000000	38
87.1630000000	35
87.1930000000	45
87.2230000000	44
87.2530000000	38
87.2830000000	36
87.3130000000	35
87.3430000000	46
87.3730000000	42
87.4030000000	33
87.4330000000	43
87.4630000000	38
87.4930000000	38
87.5230000000	33
87.5530000000	42
87.5830000000	46
87.6130000000	31
87.6430000000	39
87.6730000000	33
87.7030000000	44
87.7330000000	39
87.7630000000	44
87.7930000000	55
87.8230000000	43
87.8530000000	41
87.8830000000	51
87.9130000000	40
87.9430000000	42
87.9730000000	32
88.0030000000	44
88.0330000000	41
88.0630000000	45
88.0930000000	45
88.1230000000	36
88.1530000000	44
88.1830000000	43
88.2130000000	47
88.2430000000	48
88.2730000000	66
88.3030000000	55
88.3330000000	52
88.3630000000	49
88.3930000000	46
88.4230000000	60
88.4530000000	54
88.4830000000	44
88.5130000000	40
88.5430000000	42
88.5730000000	62
88.6030000000	35
88.6330000000	55
88.6630000000	42
88.6930000000	42
88.7230000000	48
88.7530000000	43
88.7830000000	38
88.8130000000	53
88.8430000000	31
88.8730000000	46
88.9030000000	38
88.9330000000	24
88.9630000000	31
88.9930000000	42
89.0230000000	30
89.0530000000	34
89.0830000000	41
89.1130000000	37
89.1430000000	42
89.1730000000	36
89.2030000000	32
89.2330000000	36
89.2630000000	38
89.2930000000	43
89.3230000000	33
89.3530000000	46
89.3830000000	50
89.4130000000	49
89.4430000000	44
89.4730000000	42
89.5030000000	51
89.5330000000	49
89.5630000000	53
89.5930000000	52
89.6230000000	43
89.6530000000	46
89.6830000000	46
89.7130000000	46
89.7430000000	39
89.7730000000	38
89.8030000000	48
89.8330000000	49
89.8630000000	43
89.8930000000	36
89.9230000000	36
89.9530000000	43
89.9830000000	41
90.0130000000	33
90.0430000000	50
90.0730000000	35
90.1030000000	32
90.1330000000	32
90.1630000000	33
90.1930000000	40
90.2230000000	39
90.2530000000	40
90.2830000000	39
90.3130000000	43
90.3430000000	32
90.3730000000	40
90.4030000000	48
90.4330000000	38
90.4630000000	29
90.4930000000	32
90.5230000000	43
90.5530000000	53
90.5830000000	35
90.6130000000	37
90.6430000000	45
90.6730000000	46
90.7030000000	41
90.7330000000	35
90.7630000000	34
90.7930000000	39
90.8230000000	27
90.8530000000	34
90.8830000000	38
90.9130000000	42
90.9430000000	30
90.9730000000	46
91.0030000000	32
91.0330000000	51
91.0630000000	37
91.0930000000	31
91.1230000000	36
91.1530000000	40
91.1830000000	40
91.2130000000	29
91.2430000000	40
91.2730000000	43
91.3030000000	35
91.3330000000	44
91.3630000000	54
91.3930000000	37
91.4230000000	37
91.4530000000	38
91.4830000000	33
91.5130000000	37
91.5430000000	37
91.5730000000	32
91.6030000000	33
91.6330000000	35
91.6630000000	38
91.6930000000	41
91.7230000000	38
91.7530000000	39
91.7830000000	32
91.8130000000	32
91.8430000000	41
91.8730000000	22
91.9030000000	29
91.9330000000	36
91.9630000000	35
91.9930000000	38
92.0230000000	40
92.0530000000	42
92.0830000000	30
92.1130000000	22
92.1430000000	45
92.1730000000	39
92.2030000000	33
92.2330000000	43
92.2630000000	39
92.2930000000	42
92.3230000000	40
92.3530000000	36
92.3830000000	29
92.4130000000	45
92.4430000000	28
92.4730000000	37
92.5030000000	32
92.5330000000	32
92.5630000000	32
92.5930000000	35
92.6230000000	28
92.6530000000	41
92.6830000000	34
92.7130000000	55
92.7430000000	35
92.7730000000	36
92.8030000000	40
92.8330000000	37
92.8630000000	48
92.8930000000	54
92.9230000000	42
92.9530000000	36
92.9830000000	32
93.0130000000	36
93.0430000000	36
93.0730000000	35
93.1030000000	43
93.1330000000	42
93.1630000000	34
93.1930000000	38
93.2230000000	43
93.2530000000	37
93.2830000000	34
93.3130000000	40
93.3430000000	38
93.3730000000	24
93.4030000000	37
93.4330000000	55
93.4630000000	37
93.4930000000	44
93.5230000000	35
93.5530000000	33
93.5830000000	41
93.6130000000	39
93.6430000000	36
93.6730000000	42
93.7030000000	34
93.7330000000	45
93.7630000000	56
93.7930000000	32
93.8230000000	37
93.8530000000	28
93.8830000000	30
93.9130000000	29
93.9430000000	36
93.9730000000	34
94.0030000000	35
94.0330000000	37
94.0630000000	45
94.0930000000	43
94.1230000000	37
94.1530000000	46
94.1830000000	40
94.2130000000	37
94.2430000000	34
94.2730000000	33
94.3030000000	56
94.3330000000	43
94.3630000000	36
94.3930000000	35
94.4230000000	48
94.4530000000	43
94.4830000000	40
94.5130000000	38
94.5430000000	35
94.5730000000	39
94.6030000000	36
94.6330000000	35
94.6630000000	37
94.6930000000	39
94.7230000000	40
94.7530000000	37
94.7830000000	50
94.8130000000	39
94.8430000000	35
94.8730000000	43
94.9030000000	31
94.9330000000	35
94.9630000000	42
94.9930000000	37
95.0230000000	37
95.0530000000	36
95.0830000000	44
95.1130000000	34
95.1430000000	34
95.1730000000	31
95.2030000000	39
95.2330000000	26
95.2630000000	45
95.2930000000	49
95.3230000000	26
95.3530000000	38
95.3830000000	26
95.4130000000	37
95.4430000000	34
95.4730000000	40
95.5030000000	31
95.5330000000	38
95.5630000000	32
95.5930000000	43
95.6230000000	50
95.6530000000	42
95.6830000000	41
95.7130000000	35
95.7430000000	33
95.7730000000	28
95.8030000000	39
95.8330000000	31
95.8630000000	34
95.8930000000	38
95.9230000000	35
95.9530000000	35
95.9830000000	33
96.0130000000	36
96.0430000000	36
96.0730000000	35
96.1030000000	45
96.1330000000	48
96.1630000000	26
96.1930000000	38
96.2230000000	32
96.2530000000	39
96.2830000000	39
96.3130000000	35
96.3430000000	44
96.3730000000	37
96.4030000000	43
96.4330000000	34
96.4630000000	42
96.4930000000	36
96.5230000000	28
96.5530000000	38
96.5830000000	54
96.6130000000	37
96.6430000000	47
96.6730000000	34
96.7030000000	31
96.7330000000	42
96.7630000000	35
96.7930000000	35
96.8230000000	39
96.8530000000	40
96.8830000000	31
96.9130000000	38
96.9430000000	44
96.9730000000	39
97.0030000000	41
97.0330000000	30
97.0630000000	36
97.0930000000	35
97.1230000000	38
97.1530000000	29
97.1830000000	43
97.2130000000	42
97.2430000000	49
97.2730000000	40
97.3030000000	35
97.3330000000	36
97.3630000000	29
97.3930000000	36
97.4230000000	39
97.4530000000	38
97.4830000000	52
97.5130000000	41
97.5430000000	31
97.5730000000	41
97.6030000000	35
97.6330000000	26
97.6630000000	34
97.6930000000	40
97.7230000000	32
97.7530000000	36
97.7830000000	40
97.8130000000	37
97.8430000000	35
97.8730000000	39
97.9030000000	35
97.9330000000	40
97.9630000000	39
97.9930000000	29
98.0230000000	36
98.0530000000	39
98.0830000000	30
98.1130000000	47
98.1430000000	33
98.1730000000	50
98.2030000000	33
98.2330000000	38
98.2630000000	34
98.2930000000	18
98.3230000000	26
98.3530000000	28
98.3830000000	24
98.4130000000	43
98.4430000000	35
98.4730000000	40
98.5030000000	38
98.5330000000	44
98.5630000000	33
98.5930000000	26
98.6230000000	27
98.6530000000	35
98.6830000000	30
98.7130000000	32
98.7430000000	37
98.7730000000	42
98.8030000000	45
98.8330000000	39
98.8630000000	33
98.8930000000	35
98.9230000000	46
98.9530000000	48
98.9830000000	38
99.0130000000	34
99.0430000000	33
99.0730000000	37
99.1030000000	36
99.1330000000	36
99.1630000000	31
99.1930000000	48
99.2230000000	39
99.2530000000	42
99.2830000000	39
99.3130000000	37
99.3430000000	38
99.3730000000	30
99.4030000000	42
99.4330000000	46
99.4630000000	33
99.4930000000	28
99.5230000000	25
99.5530000000	36
99.5830000000	37
99.6130000000	39
99.6430000000	45
99.6730000000	37
99.7030000000	42
99.7330000000	38
99.7630000000	35
99.7930000000	34
99.8230000000	44
99.8530000000	35
99.8830000000	43
99.9130000000	37
99.9430000000	33
99.9730000000	24
100.0030000000	32
100.0330000000	39
100.0630000000	42
100.0930000000	30
100.1230000000	32
100.1530000000	33
100.1830000000	30
100.2130000000	39
100.2430000000	41
100.2730000000	43
100.3030000000	40
100.3330000000	45
100.3630000000	42
100.3930000000	39
100.4230000000	37
100.4530000000	38
100.4830000000	43
100.5130000000	40
100.5430000000	28
100.5730000000	29
100.6030000000	31
100.6330000000	45
100.6630000000	37
100.6930000000	31
100.7230000000	23
100.7530000000	38
100.7830000000	43
100.8130000000	33
100.8430000000	24
100.8730000000	29
100.9030000000	34
100.9330000000	34
100.9630000000	35
100.9930000000	23
101.0230000000	37
101.0530000000	35
101.0830000000	37
101.1130000000	36
101.1430000000	31
101.1730000000	33
101.2030000000	35
101.2330000000	32
101.2630000000	38
101.2930000000	40
101.3230000000	31
101.3530000000	35
101.3830000000	35
101.4130000000	31
101.4430000000	39
101.4730000000	37
101.5030000000	34
101.5330000000	41
101.5630000000	37
101.5930000000	25
101.6230000000	29
101.6530000000	36
101.6830000000	34
101.7130000000	31
101.7430000000	37
101.7730000000	40
101.8030000000	23
101.8330000000	38
101.8630000000	34
101.8930000000	39
101.9230000000	37
101.9530000000	34
101.9830000000	39
102.0130000000	40
102.0430000000	33
102.0730000000	34
102.1030000000	32
102.1330000000	35
102.1630000000	30
102.1930000000	37
102.2230000000	36
102.2530000000	41
102.2830000000	30
102.3130000000	31
102.3430000000	48
102.3730000000	32
102.4030000000	35
102.4330000000	37
102.4630000000	43
102.4930000000	34
102.5230000000	34
102.5530000000	38
102.5830000000	36
102.6130000000	35
102.6430000000	36
102.6730000000	31
102.7030000000	23
102.7330000000	37
102.7630000000	28
102.7930000000	31
102.8230000000	30
102.8530000000	35
102.8830000000	34
102.9130000000	43
102.9430000000	32
102.9730000000	40
103.0030000000	34
103.0330000000	37
103.0630000000	35
103.0930000000	34
103.1230000000	32
103.1530000000	36
103.1830000000	40
103.2130000000	33
103.2430000000	28
103.2730000000	27
103.3030000000	29
103.3330000000	35
103.3630000000	41
103.3930000000	30
103.4230000000	38
103.4530000000	43
103.4830000000	34
103.5130000000	27
103.5430000000	37
103.5730000000	43
103.6030000000	23
103.6330000000	29
103.6630000000	39
103.6930000000	41
103.7230000000	37
103.7530000000	43
103.7830000000	44
103.8130000000	38
103.8430000000	39
103.8730000000	36
103.9030000000	34
103.9330000000	37
103.9630000000	30
103.9930000000	45
104.0230000000	45
104.0530000000	29
104.0830000000	33
104.1130000000	40
104.1430000000	37
104.1730000000	40
104.2030000000	35
104.2330000000	35
104.2630000000	29
104.2930000000	23
104.3230000000	48
104.3530000000	36
104.3830000000	47
104.4130000000	34
104.4430000000	32
104.4730000000	45
104.5030000000	31
104.5330000000	46
104.5630000000	41
104.5930000000	41
104.6230000000	38
104.6530000000	49
104.6830000000	37
104.7130000000	31
104.7430000000	40
104.7730000000	41
104.8030000000	41
104.8330000000	45
104.8630000000	30
104.8930000000	44
104.9230000000	39
104.9530000000	44
104.9830000000	46
105.0130000000	33
105.0430000000	35
105.0730000000	35
105.1030000000	35
105.1330000000	38
105.1630000000	28
105.1930000000	26
105.2230000000	47
105.2530000000	40
105.2830000000	34
105.3130000000	43
105.3430000000	36
105.3730000000	32
105.4030000000	44
105.4330000000	30
105.4630000000	34
105.4930000000	33
105.5230000000	40
105.5530000000	40
105.5830000000	40
105.6130000000	39
105.6430000000	37
105.6730000000	33
105.7030000000	39
105.7330000000	32
105.7630000000	37
105.7930000000	39
105.8230000000	37
105.8530000000	34
105.8830000000	34
105.9130000000	33
105.9430000000	28
105.9730000000	32
106.0030000000	33
106.0330000000	38
106.0630000000	38
106.0930000000	35
106.1230000000	31
106.1530000000	31
106.1830000000	32
106.2130000000	33
106.2430000000	36
106.2730000000	39
106.3030000000	34
106.3330000000	31
106.3630000000	30
106.3930000000	38
106.4230000000	44
106.4530000000	36
106.4830000000	47
106.5130000000	44
106.5430000000	32
106.5730000000	43
106.6030000000	30
106.6330000000	38
106.6630000000	35
106.6930000000	32
106.7230000000	53
106.7530000000	44
106.7830000000	59
106.8130000000	58
106.8430000000	53
106.8730000000	43
106.9030000000	44
106.9330000000	40
106.9630000000	34
106.9930000000	36
107.0230000000	40
107.0530000000	44
107.0830000000	33
107.1130000000	47
107.1430000000	41
107.1730000000	48
107.2030000000	38
107.2330000000	40
107.2630000000	39
107.2930000000	30
107.3230000000	35
107.3530000000	43
107.3830000000	30
107.4130000000	29
107.4430000000	41
107.4730000000	36
107.5030000000	40
107.5330000000	43
107.5630000000	37
107.5930000000	27
107.6230000000	36
107.6530000000	41
107.6830000000	36
107.7130000000	41
107.7430000000	36
107.7730000000	30
107.8030000000	40
107.8330000000	40
107.8630000000	41
107.8930000000	46
107.9230000000	37
107.9530000000	35
107.9830000000	40
108.0130000000	27
108.0430000000	42
108.0730000000	38
108.1030000000	41
108.1330000000	47
108.1630000000	44
108.1930000000	27
108.2230000000	35
108.2530000000	34
108.2830000000	32
108.3130000000	34
108.3430000000	30
108.3730000000	26
108.4030000000	33
108.4330000000	42
108.4630000000	43
108.4930000000	36
108.5230000000	44
108.5530000000	39
108.5830000000	34
108.6130000000	38
108.6430000000	44
108.6730000000	31
108.7030000000	27
108.7330000000	31
108.7630000000	48
108.7930000000	45
108.8230000000	34
108.8530000000	28
108.8830000000	48
108.9130000000	37
108.9430000000	26
108.9730000000	35
109.0030000000	34
109.0330000000	35
109.0630000000	38
109.0930000000	42
109.1230000000	28
109.1530000000	34
109.1830000000	26
109.2130000000	42
109.2430000000	33
109.2730000000	33
109.3030000000	33
109.3330000000	28
109.3630000000	38
109.3930000000	42
109.4230000000	43
109.4530000000	36
109.4830000000	58
109.5130000000	40
109.5430000000	46
109.5730000000	38
109.6030000000	38
109.6330000000	51
109.6630000000	38
109.6930000000	40
109.7230000000	36
109.7530000000	36
109.7830000000	46
109.8130000000	48
109.8430000000	33
109.8730000000	48
109.9030000000	41
109.9330000000	49
109.9630000000	35
109.9930000000	26
110.0230000000	42
110.0530000000	54
110.0830000000	26
110.1130000000	48
110.1430000000	54
110.1730000000	42
110.2030000000	57
110.2330000000	46
110.2630000000	41
110.2930000000	40
110.3230000000	38
110.3530000000	44
110.3830000000	41
110.4130000000	46
110.4430000000	52
110.4730000000	32
110.5030000000	42
110.5330000000	42
110.5630000000	42
110.5930000000	36
110.6230000000	41
110.6530000000	36
110.6830000000	45
110.7130000000	42
110.7430000000	48
110.7730000000	44
110.8030000000	38
110.8330000000	39
110.8630000000	53
110.8930000000	41
110.9230000000	38
110.9530000000	44
110.9830000000	37
111.0130000000	43
111.0430000000	42
111.0730000000	47
111.1030000000	43
111.1330000000	38
111.1630000000	44
111.1930000000	48
111.2230000000	52
111.2530000000	41
111.2830000000	44
111.3130000000	50
111.3430000000	38
111.3730000000	53
111.4030000000	38
111.4330000000	44
111.4630000000	44
111.4930000000	46
111.5230000000	42
111.5530000000	40
111.5830000000	43
111.6130000000	27
111.6430000000	31
111.6730000000	34
111.7030000000	43
111.7330000000	58
111.7630000000	49
111.7930000000	48
111.8230000000	31
111.8530000000	47
111.8830000000	47
111.9130000000	36
111.9430000000	27
111.9730000000	34
112.0030000000	34
112.0330000000	45
112.0630000000	39
112.0930000000	48
112.1230000000	40
112.1530000000	32
112.1830000000	35
112.2130000000	26
112.2430000000	42
112.2730000000	41
112.3030000000	42
112.3330000000	33
112.3630000000	45
112.3930000000	33
112.4230000000	35
112.4530000000	43
112.4830000000	40
112.5130000000	42
112.5430000000	35
112.5730000000	43
112.6030000000	49
112.6330000000	43
112.6630000000	41
112.6930000000	39
112.7230000000	43
112.7530000000	39
112.7830000000	36
112.8130000000	45
112.8430000000	40
112.8730000000	38
112.9030000000	41
112.9330000000	40
112.9630000000	49
112.9930000000	62
113.0230000000	48
113.0530000000	45
113.0830000000	59
113.1130000000	68
113.1430000000	69
113.1730000000	59
113.2030000000	71
113.2330000000	67
113.2630000000	60
113.2930000000	62
113.3230000000	53
113.3530000000	51
113.3830000000	54
113.4130000000	52
113.4430000000	52
113.4730000000	56
113.5030000000	52
113.5330000000	51
113.5630000000	45
113.5930000000	51
113.6230000000	49
113.6530000000	45
113.6830000000	55
113.7130000000	50
113.7430000000	53
113.7730000000	43
113.8030000000	32
113.8330000000	31
113.8630000000	36
113.8930000000	45
113.9230000000	48
113.9530000000	39
113.9830000000	46
114.0130000000	51
114.0430000000	48
114.0730000000	41
114.1030000000	38
114.1330000000	37
114.1630000000	46
114.1930000000	56
114.2230000000	44
114.2530000000	41
114.2830000000	44
114.3130000000	38
114.3430000000	41
114.3730000000	43
114.4030000000	42
114.4330000000	41
114.4630000000	1
114.4930000000	1
114.5230000000	1
114.5530000000	1
114.5830000000	1
