0.3130000000	1
0.3430000000	1
0.3730000000	1
0.4030000000	1
0.4330000000	1
0.4630000000	1
0.4930000000	1
0.5230000000	1
0.5530000000	1
0.5830000000	1
0.6130000000	2
0.6430000000	1
0.6730000000	1
0.7030000000	2
0.7330000000	1
0.7630000000	1
0.7930000000	1
0.8230000000	1
0.8530000000	1
0.8830000000	1
0.9130000000	2
0.9430000000	1
0.9730000000	1
1.0030000000	1
1.0330000000	1
1.0630000000	2
1.0930000000	1
1.1230000000	1
1.1530000000	1
1.1830000000	1
1.2130000000	1
1.2430000000	1
1.2730000000	1
1.3030000000	1
1.3330000000	1
1.3630000000	2
1.3930000000	1
1.4230000000	1
1.4530000000	3
1.4830000000	2
1.5130000000	1
1.5430000000	1
1.5730000000	3
1.6030000000	2
1.6330000000	1
1.6630000000	1
1.6930000000	1
1.7230000000	1
1.7530000000	1
1.7830000000	1
1.8130000000	1
1.8430000000	1
1.8730000000	2
1.9030000000	1
1.9330000000	1
1.9630000000	1
1.9930000000	1
2.0230000000	1
2.0530000000	1
2.0830000000	1
2.1130000000	2
2.1430000000	1
2.1730000000	1
2.2030000000	2
2.2330000000	1
2.2630000000	1
2.2930000000	1
2.3230000000	1
2.3530000000	1
2.3830000000	2
2.4130000000	2
2.4430000000	1
2.4730000000	1
2.5030000000	1
2.5330000000	1
2.5630000000	1
2.5930000000	1
2.6230000000	1
2.6530000000	1
2.6830000000	1
2.7130000000	2
2.7430000000	2
2.7730000000	3
2.8030000000	1
2.8330000000	1
2.8630000000	1
2.8930000000	1
2.9230000000	2
2.9530000000	1
2.9830000000	3
3.0130000000	2
3.0430000000	1
3.0730000000	1
3.1030000000	2
3.1330000000	2
3.1630000000	2
3.1930000000	1
3.2230000000	1
3.2530000000	1
3.2830000000	3
3.3130000000	1
3.3430000000	1
3.3730000000	1
3.4030000000	1
3.4330000000	1
3.4630000000	1
3.4930000000	2
3.5230000000	2
3.5530000000	2
3.5830000000	2
3.6130000000	2
3.6430000000	1
3.6730000000	2
3.7030000000	3
3.7330000000	1
3.7630000000	1
3.7930000000	1
3.8230000000	1
3.8530000000	3
3.8830000000	3
3.9130000000	1
3.9430000000	2
3.9730000000	1
4.0030000000	3
4.0330000000	3
4.0630000000	2
4.0930000000	2
4.1230000000	5
4.1530000000	2
4.1830000000	3
4.2130000000	2
4.2430000000	5
4.2730000000	5
4.3030000000	2
4.3330000000	4
4.3630000000	4
4.3930000000	4
4.4230000000	7
4.4530000000	7
4.4830000000	14
4.5130000000	21
4.5430000000	22
4.5730000000	59
4.6030000000	73
4.6330000000	110
4.6630000000	108
4.6930000000	136
4.7230000000	134
4.7530000000	124
4.7830000000	141
4.8130000000	128
4.8430000000	136
4.8730000000	147
4.9030000000	163
4.9330000000	137
4.9630000000	124
4.9930000000	127
5.0230000000	119
5.0530000000	128
5.0830000000	156
5.1130000000	152
5.1430000000	152
5.1730000000	130
5.2030000000	147
5.2330000000	124
5.2630000000	147
5.2930000000	140
5.3230000000	134
5.3530000000	142
5.3830000000	141
5.4130000000	147
5.4430000000	166
5.4730000000	132
5.5030000000	144
5.5330000000	144
5.5630000000	136
5.5930000000	146
5.6230000000	137
5.6530000000	164
5.6830000000	168
5.7130000000	139
5.7430000000	160
5.7730000000	138
5.8030000000	155
5.8330000000	155
5.8630000000	148
5.8930000000	133
5.9230000000	145
5.9530000000	155
5.9830000000	155
6.0130000000	154
6.0430000000	131
6.0730000000	134
6.1030000000	144
6.1330000000	163
6.1630000000	152
6.1930000000	139
6.2230000000	124
6.2530000000	146
6.2830000000	118
6.3130000000	164
6.3430000000	158
6.3730000000	127
6.4030000000	142
6.4330000000	124
6.4630000000	119
6.4930000000	156
6.5230000000	147
6.5530000000	141
6.5830000000	155
6.6130000000	157
6.6430000000	149
6.6730000000	134
6.7030000000	157
6.7330000000	155
6.7630000000	139
6.7930000000	145
6.8230000000	153
6.8530000000	151
6.8830000000	141
6.9130000000	136
6.9430000000	125
6.9730000000	141
7.0030000000	147
7.0330000000	133
7.0630000000	132
7.0930000000	125
7.1230000000	144
7.1530000000	141
7.1830000000	135
7.2130000000	137
7.2430000000	137
7.2730000000	148
7.3030000000	139
7.3330000000	130
7.3630000000	138
7.3930000000	140
7.4230000000	141
7.4530000000	148
7.4830000000	146
7.5130000000	140
7.5430000000	155
7.5730000000	140
7.6030000000	135
7.6330000000	156
7.6630000000	156
7.6930000000	146
7.7230000000	145
7.7530000000	144
7.7830000000	144
7.8130000000	160
7.8430000000	153
7.8730000000	147
7.9030000000	150
7.9330000000	144
7.9630000000	148
7.9930000000	139
8.0230000000	135
8.0530000000	149
8.0830000000	148
8.1130000000	150
8.1430000000	139
8.1730000000	137
8.2030000000	149
8.2330000000	134
8.2630000000	132
8.2930000000	154
8.3230000000	160
8.3530000000	156
8.3830000000	126
8.4130000000	138
8.4430000000	130
8.4730000000	155
8.5030000000	160
8.5330000000	155
8.5630000000	165
8.5930000000	140
8.6230000000	140
8.6530000000	137
8.6830000000	145
8.7130000000	139
8.7430000000	139
8.7730000000	139
8.8030000000	149
8.8330000000	139
8.8630000000	152
8.8930000000	142
8.9230000000	136
8.9530000000	149
8.9830000000	156
9.0130000000	151
9.0430000000	147
9.0730000000	157
9.1030000000	139
9.1330000000	137
9.1630000000	143
9.1930000000	151
9.2230000000	129
9.2530000000	139
9.2830000000	153
9.3130000000	131
9.3430000000	175
9.3730000000	149
9.4030000000	151
9.4330000000	136
9.4630000000	132
9.4930000000	174
9.5230000000	173
9.5530000000	151
9.5830000000	141
9.6130000000	142
9.6430000000	147
9.6730000000	137
9.7030000000	149
9.7330000000	146
9.7630000000	124
9.7930000000	149
9.8230000000	160
9.8530000000	166
9.8830000000	130
9.9130000000	152
9.9430000000	131
9.9730000000	145
10.0030000000	158
10.0330000000	136
10.0630000000	131
10.0930000000	146
10.1230000000	134
10.1530000000	135
10.1830000000	151
10.2130000000	155
10.2430000000	142
10.2730000000	140
10.3030000000	137
10.3330000000	156
10.3630000000	140
10.3930000000	141
10.4230000000	120
10.4530000000	135
10.4830000000	156
10.5130000000	139
10.5430000000	149
10.5730000000	141
10.6030000000	165
10.6330000000	168
10.6630000000	149
10.6930000000	157
10.7230000000	158
10.7530000000	127
10.7830000000	162
10.8130000000	144
10.8430000000	148
10.8730000000	146
10.9030000000	135
10.9330000000	164
10.9630000000	165
10.9930000000	151
11.0230000000	145
11.0530000000	146
11.0830000000	137
11.1130000000	167
11.1430000000	142
11.1730000000	141
11.2030000000	153
11.2330000000	183
11.2630000000	143
11.2930000000	153
11.3230000000	168
11.3530000000	151
11.3830000000	167
11.4130000000	155
11.4430000000	148
11.4730000000	158
11.5030000000	145
11.5330000000	125
11.5630000000	148
11.5930000000	157
11.6230000000	132
11.6530000000	139
11.6830000000	140
11.7130000000	154
11.7430000000	148
11.7730000000	162
11.8030000000	142
11.8330000000	132
11.8630000000	125
11.8930000000	149
11.9230000000	153
11.9530000000	139
11.9830000000	150
12.0130000000	120
12.0430000000	139
12.0730000000	155
12.1030000000	148
12.1330000000	137
12.1630000000	139
12.1930000000	138
12.2230000000	132
12.2530000000	140
12.2830000000	155
12.3130000000	149
12.3430000000	149
12.3730000000	151
12.4030000000	159
12.4330000000	160
12.4630000000	145
12.4930000000	152
12.5230000000	156
12.5530000000	133
12.5830000000	142
12.6130000000	154
12.6430000000	158
12.6730000000	149
12.7030000000	156
12.7330000000	148
12.7630000000	143
12.7930000000	142
12.8230000000	146
12.8530000000	153
12.8830000000	135
12.9130000000	125
12.9430000000	154
12.9730000000	164
13.0030000000	156
13.0330000000	149
13.0630000000	144
13.0930000000	142
13.1230000000	137
13.1530000000	150
13.1830000000	121
13.2130000000	121
13.2430000000	125
13.2730000000	140
13.3030000000	139
13.3330000000	164
13.3630000000	150
13.3930000000	130
13.4230000000	157
13.4530000000	176
13.4830000000	158
13.5130000000	128
13.5430000000	134
13.5730000000	150
13.6030000000	138
13.6330000000	119
13.6630000000	142
13.6930000000	163
13.7230000000	148
13.7530000000	139
13.7830000000	137
13.8130000000	152
13.8430000000	141
13.8730000000	131
13.9030000000	128
13.9330000000	164
13.9630000000	125
13.9930000000	142
14.0230000000	142
14.0530000000	125
14.0830000000	136
14.1130000000	136
14.1430000000	129
14.1730000000	162
14.2030000000	146
14.2330000000	156
14.2630000000	142
14.2930000000	151
14.3230000000	131
14.3530000000	152
14.3830000000	138
14.4130000000	162
14.4430000000	162
14.4730000000	160
14.5030000000	150
14.5330000000	168
14.5630000000	145
14.5930000000	141
14.6230000000	138
14.6530000000	131
14.6830000000	137
14.7130000000	141
14.7430000000	132
14.7730000000	152
14.8030000000	115
14.8330000000	131
14.8630000000	132
14.8930000000	137
14.9230000000	150
14.9530000000	173
14.9830000000	151
15.0130000000	149
15.0430000000	160
15.0730000000	147
15.1030000000	158
15.1330000000	162
15.1630000000	148
15.1930000000	155
15.2230000000	151
15.2530000000	139
15.2830000000	164
15.3130000000	149
15.3430000000	158
15.3730000000	164
15.4030000000	157
15.4330000000	136
15.4630000000	133
15.4930000000	160
15.5230000000	163
15.5530000000	142
15.5830000000	155
15.6130000000	137
15.6430000000	153
15.6730000000	134
15.7030000000	140
15.7330000000	144
15.7630000000	155
15.7930000000	159
15.8230000000	151
15.8530000000	124
15.8830000000	146
15.9130000000	166
15.9430000000	159
15.9730000000	140
16.0030000000	145
16.0330000000	162
16.0630000000	143
16.0930000000	131
16.1230000000	142
16.1530000000	152
16.1830000000	148
16.2130000000	153
16.2430000000	142
16.2730000000	159
16.3030000000	152
16.3330000000	134
16.3630000000	140
16.3930000000	145
16.4230000000	145
16.4530000000	153
16.4830000000	149
16.5130000000	130
16.5430000000	153
16.5730000000	141
16.6030000000	170
16.6330000000	141
16.6630000000	135
16.6930000000	147
16.7230000000	143
16.7530000000	148
16.7830000000	127
16.8130000000	138
16.8430000000	128
16.8730000000	115
16.9030000000	159
16.9330000000	144
16.9630000000	138
16.9930000000	147
17.0230000000	131
17.0530000000	133
17.0830000000	159
17.1130000000	164
17.1430000000	143
17.1730000000	167
17.2030000000	159
17.2330000000	144
17.2630000000	140
17.2930000000	155
17.3230000000	148
17.3530000000	135
17.3830000000	137
17.4130000000	144
17.4430000000	139
17.4730000000	132
17.5030000000	151
17.5330000000	146
17.5630000000	145
17.5930000000	146
17.6230000000	143
17.6530000000	137
17.6830000000	131
17.7130000000	121
17.7430000000	137
17.7730000000	153
17.8030000000	148
17.8330000000	151
17.8630000000	139
17.8930000000	137
17.9230000000	147
17.9530000000	146
17.9830000000	147
18.0130000000	143
18.0430000000	135
18.0730000000	143
18.1030000000	150
18.1330000000	138
18.1630000000	148
18.1930000000	158
18.2230000000	143
18.2530000000	135
18.2830000000	148
18.3130000000	136
18.3430000000	130
18.3730000000	152
18.4030000000	145
18.4330000000	152
18.4630000000	158
18.4930000000	165
18.5230000000	137
18.5530000000	128
18.5830000000	137
18.6130000000	156
18.6430000000	163
18.6730000000	142
18.7030000000	146
18.7330000000	142
18.7630000000	156
18.7930000000	172
18.8230000000	165
18.8530000000	190
18.8830000000	150
18.9130000000	183
18.9430000000	165
18.9730000000	163
19.0030000000	168
19.0330000000	153
19.0630000000	152
19.0930000000	178
19.1230000000	155
19.1530000000	127
19.1830000000	152
19.2130000000	175
19.2430000000	160
19.2730000000	167
19.3030000000	129
19.3330000000	167
19.3630000000	148
19.3930000000	147
19.4230000000	153
19.4530000000	133
19.4830000000	175
19.5130000000	156
19.5430000000	166
19.5730000000	147
19.6030000000	137
19.6330000000	134
19.6630000000	145
19.6930000000	157
19.7230000000	157
19.7530000000	155
19.7830000000	173
19.8130000000	184
19.8430000000	142
19.8730000000	148
19.9030000000	146
19.9330000000	141
19.9630000000	171
19.9930000000	136
20.0230000000	139
20.0530000000	147
20.0830000000	161
20.1130000000	152
20.1430000000	180
20.1730000000	151
20.2030000000	159
20.2330000000	166
20.2630000000	182
20.2930000000	177
20.3230000000	173
20.3530000000	150
20.3830000000	176
20.4130000000	171
20.4430000000	161
20.4730000000	188
20.5030000000	191
20.5330000000	194
20.5630000000	191
20.5930000000	189
20.6230000000	244
20.6530000000	269
20.6830000000	429
20.7130000000	670
20.7430000000	1049
20.7730000000	1656
20.8030000000	2415
20.8330000000	3953
20.8630000000	6008
20.8930000000	7167
20.9230000000	6313
20.9530000000	4085
20.9830000000	2500
21.0130000000	1402
21.0430000000	924
21.0730000000	595
21.1030000000	385
21.1330000000	278
21.1630000000	214
21.1930000000	203
21.2230000000	205
21.2530000000	180
21.2830000000	187
21.3130000000	180
21.3430000000	153
21.3730000000	163
21.4030000000	156
21.4330000000	164
21.4630000000	163
21.4930000000	153
21.5230000000	143
21.5530000000	159
21.5830000000	165
21.6130000000	154
21.6430000000	171
21.6730000000	168
21.7030000000	176
21.7330000000	160
21.7630000000	140
21.7930000000	158
21.8230000000	159
21.8530000000	162
21.8830000000	159
21.9130000000	150
21.9430000000	142
21.9730000000	138
22.0030000000	159
22.0330000000	157
22.0630000000	157
22.0930000000	158
22.1230000000	153
22.1530000000	157
22.1830000000	171
22.2130000000	162
22.2430000000	177
22.2730000000	180
22.3030000000	158
22.3330000000	162
22.3630000000	162
22.3930000000	163
22.4230000000	162
22.4530000000	162
22.4830000000	182
22.5130000000	177
22.5430000000	173
22.5730000000	169
22.6030000000	170
22.6330000000	171
22.6630000000	172
22.6930000000	188
22.7230000000	168
22.7530000000	175
22.7830000000	162
22.8130000000	185
22.8430000000	168
22.8730000000	165
22.9030000000	171
22.9330000000	149
22.9630000000	190
22.9930000000	167
23.0230000000	171
23.0530000000	153
23.0830000000	156
23.1130000000	174
23.1430000000	172
23.1730000000	168
23.2030000000	153
23.2330000000	171
23.2630000000	171
23.2930000000	165
23.3230000000	171
23.3530000000	187
23.3830000000	159
23.4130000000	176
23.4430000000	156
23.4730000000	177
23.5030000000	168
23.5330000000	161
23.5630000000	159
23.5930000000	178
23.6230000000	162
23.6530000000	182
23.6830000000	192
23.7130000000	151
23.7430000000	172
23.7730000000	167
23.8030000000	188
23.8330000000	169
23.8630000000	178
23.8930000000	185
23.9230000000	174
23.9530000000	164
23.9830000000	173
24.0130000000	173
24.0430000000	190
24.0730000000	177
24.1030000000	161
24.1330000000	184
24.1630000000	180
24.1930000000	186
24.2230000000	189
24.2530000000	170
24.2830000000	160
24.3130000000	149
24.3430000000	156
24.3730000000	182
24.4030000000	189
24.4330000000	160
24.4630000000	162
24.4930000000	189
24.5230000000	173
24.5530000000	162
24.5830000000	180
24.6130000000	161
24.6430000000	165
24.6730000000	178
24.7030000000	185
24.7330000000	152
24.7630000000	146
24.7930000000	172
24.8230000000	159
24.8530000000	168
24.8830000000	148
24.9130000000	172
24.9430000000	186
24.9730000000	157
25.0030000000	162
25.0330000000	176
25.0630000000	163
25.0930000000	165
25.1230000000	169
25.1530000000	171
25.1830000000	156
25.2130000000	156
25.2430000000	154
25.2730000000	162
25.3030000000	184
25.3330000000	172
25.3630000000	194
25.3930000000	176
25.4230000000	209
25.4530000000	204
25.4830000000	269
25.5130000000	267
25.5430000000	254
25.5730000000	214
25.6030000000	217
25.6330000000	179
25.6630000000	186
25.6930000000	178
25.7230000000	190
25.7530000000	185
25.7830000000	179
25.8130000000	163
25.8430000000	150
25.8730000000	160
25.9030000000	162
25.9330000000	133
25.9630000000	151
25.9930000000	146
26.0230000000	167
26.0530000000	161
26.0830000000	159
26.1130000000	175
26.1430000000	176
26.1730000000	168
26.2030000000	167
26.2330000000	167
26.2630000000	166
26.2930000000	173
26.3230000000	153
26.3530000000	154
26.3830000000	163
26.4130000000	167
26.4430000000	147
26.4730000000	175
26.5030000000	177
26.5330000000	175
26.5630000000	178
26.5930000000	151
26.6230000000	144
26.6530000000	171
26.6830000000	157
26.7130000000	158
26.7430000000	151
26.7730000000	167
26.8030000000	174
26.8330000000	153
26.8630000000	162
26.8930000000	167
26.9230000000	161
26.9530000000	153
26.9830000000	155
27.0130000000	173
27.0430000000	176
27.0730000000	171
27.1030000000	165
27.1330000000	165
27.1630000000	164
27.1930000000	159
27.2230000000	164
27.2530000000	155
27.2830000000	149
27.3130000000	147
27.3430000000	150
27.3730000000	162
27.4030000000	150
27.4330000000	120
27.4630000000	144
27.4930000000	149
27.5230000000	154
27.5530000000	149
27.5830000000	160
27.6130000000	153
27.6430000000	156
27.6730000000	134
27.7030000000	157
27.7330000000	162
27.7630000000	151
27.7930000000	165
27.8230000000	169
27.8530000000	169
27.8830000000	164
27.9130000000	146
27.9430000000	131
27.9730000000	152
28.0030000000	173
28.0330000000	170
28.0630000000	137
28.0930000000	148
28.1230000000	161
28.1530000000	165
28.1830000000	152
28.2130000000	161
28.2430000000	141
28.2730000000	139
28.3030000000	150
28.3330000000	183
28.3630000000	157
28.3930000000	147
28.4230000000	173
28.4530000000	150
28.4830000000	170
28.5130000000	143
28.5430000000	150
28.5730000000	146
28.6030000000	158
28.6330000000	166
28.6630000000	167
28.6930000000	149
28.7230000000	153
28.7530000000	159
28.7830000000	168
28.8130000000	149
28.8430000000	114
28.8730000000	121
28.9030000000	142
28.9330000000	137
28.9630000000	126
28.9930000000	129
29.0230000000	138
29.0530000000	135
29.0830000000	150
29.1130000000	122
29.1430000000	151
29.1730000000	136
29.2030000000	130
29.2330000000	164
29.2630000000	146
29.2930000000	141
29.3230000000	130
29.3530000000	149
29.3830000000	141
29.4130000000	146
29.4430000000	143
29.4730000000	142
29.5030000000	161
29.5330000000	145
29.5630000000	145
29.5930000000	126
29.6230000000	148
29.6530000000	111
29.6830000000	136
29.7130000000	139
29.7430000000	154
29.7730000000	142
29.8030000000	133
29.8330000000	139
29.8630000000	139
29.8930000000	140
29.9230000000	148
29.9530000000	153
29.9830000000	178
30.0130000000	134
30.0430000000	130
30.0730000000	157
30.1030000000	116
30.1330000000	120
30.1630000000	144
30.1930000000	143
30.2230000000	146
30.2530000000	155
30.2830000000	117
30.3130000000	136
30.3430000000	141
30.3730000000	137
30.4030000000	143
30.4330000000	132
30.4630000000	151
30.4930000000	131
30.5230000000	133
30.5530000000	136
30.5830000000	144
30.6130000000	123
30.6430000000	118
30.6730000000	143
30.7030000000	141
30.7330000000	152
30.7630000000	139
30.7930000000	149
30.8230000000	128
30.8530000000	139
30.8830000000	132
30.9130000000	123
30.9430000000	147
30.9730000000	149
31.0030000000	144
31.0330000000	150
31.0630000000	137
31.0930000000	138
31.1230000000	153
31.1530000000	128
31.1830000000	147
31.2130000000	140
31.2430000000	155
31.2730000000	157
31.3030000000	130
31.3330000000	141
31.3630000000	141
31.3930000000	124
31.4230000000	149
31.4530000000	129
31.4830000000	128
31.5130000000	142
31.5430000000	141
31.5730000000	142
31.6030000000	139
31.6330000000	145
31.6630000000	142
31.6930000000	136
31.7230000000	122
31.7530000000	126
31.7830000000	127
31.8130000000	137
31.8430000000	125
31.8730000000	135
31.9030000000	136
31.9330000000	139
31.9630000000	140
31.9930000000	130
32.0230000000	110
32.0530000000	126
32.0830000000	123
32.1130000000	120
32.1430000000	142
32.1730000000	130
32.2030000000	109
32.2330000000	126
32.2630000000	122
32.2930000000	134
32.3230000000	130
32.3530000000	117
32.3830000000	103
32.4130000000	124
32.4430000000	125
32.4730000000	144
32.5030000000	105
32.5330000000	127
32.5630000000	146
32.5930000000	143
32.6230000000	155
32.6530000000	131
32.6830000000	142
32.7130000000	150
32.7430000000	142
32.7730000000	151
32.8030000000	163
32.8330000000	162
32.8630000000	197
32.8930000000	207
32.9230000000	256
32.9530000000	330
32.9830000000	542
33.0130000000	845
33.0430000000	1365
33.0730000000	2095
33.1030000000	3132
33.1330000000	5134
33.1630000000	7426
33.1930000000	8258
33.2230000000	7234
33.2530000000	5054
33.2830000000	3112
33.3130000000	1798
33.3430000000	1124
33.3730000000	724
33.4030000000	447
33.4330000000	317
33.4630000000	238
33.4930000000	177
33.5230000000	184
33.5530000000	167
33.5830000000	163
33.6130000000	171
33.6430000000	168
33.6730000000	178
33.7030000000	181
33.7330000000	184
33.7630000000	193
33.7930000000	177
33.8230000000	166
33.8530000000	158
33.8830000000	139
33.9130000000	135
33.9430000000	148
33.9730000000	150
34.0030000000	120
34.0330000000	102
34.0630000000	128
34.0930000000	130
34.1230000000	128
34.1530000000	123
34.1830000000	121
34.2130000000	115
34.2430000000	100
34.2730000000	102
34.3030000000	102
34.3330000000	103
34.3630000000	127
34.3930000000	132
34.4230000000	95
34.4530000000	113
34.4830000000	132
34.5130000000	128
34.5430000000	118
34.5730000000	109
34.6030000000	106
34.6330000000	105
34.6630000000	109
34.6930000000	113
34.7230000000	107
34.7530000000	107
34.7830000000	119
34.8130000000	130
34.8430000000	106
34.8730000000	104
34.9030000000	122
34.9330000000	132
34.9630000000	112
34.9930000000	104
35.0230000000	87
35.0530000000	101
35.0830000000	105
35.1130000000	115
35.1430000000	113
35.1730000000	118
35.2030000000	106
35.2330000000	102
35.2630000000	89
35.2930000000	98
35.3230000000	110
35.3530000000	108
35.3830000000	117
35.4130000000	105
35.4430000000	101
35.4730000000	105
35.5030000000	110
35.5330000000	111
35.5630000000	109
35.5930000000	92
35.6230000000	111
35.6530000000	111
35.6830000000	87
35.7130000000	99
35.7430000000	97
35.7730000000	95
35.8030000000	97
35.8330000000	101
35.8630000000	106
35.8930000000	101
35.9230000000	105
35.9530000000	119
35.9830000000	116
36.0130000000	108
36.0430000000	111
36.0730000000	92
36.1030000000	107
36.1330000000	105
36.1630000000	114
36.1930000000	118
36.2230000000	119
36.2530000000	142
36.2830000000	184
36.3130000000	169
36.3430000000	206
36.3730000000	196
36.4030000000	164
36.4330000000	182
36.4630000000	165
36.4930000000	134
36.5230000000	120
36.5530000000	99
36.5830000000	108
36.6130000000	113
36.6430000000	91
36.6730000000	117
36.7030000000	105
36.7330000000	100
36.7630000000	121
36.7930000000	104
36.8230000000	88
36.8530000000	106
36.8830000000	104
36.9130000000	99
36.9430000000	101
36.9730000000	94
37.0030000000	94
37.0330000000	84
37.0630000000	81
37.0930000000	87
37.1230000000	95
37.1530000000	110
37.1830000000	105
37.2130000000	85
37.2430000000	107
37.2730000000	92
37.3030000000	82
37.3330000000	85
37.3630000000	105
37.3930000000	100
37.4230000000	107
37.4530000000	103
37.4830000000	92
37.5130000000	94
37.5430000000	102
37.5730000000	115
37.6030000000	113
37.6330000000	108
37.6630000000	98
37.6930000000	101
37.7230000000	96
37.7530000000	91
37.7830000000	93
37.8130000000	96
37.8430000000	84
37.8730000000	92
37.9030000000	110
37.9330000000	97
37.9630000000	111
37.9930000000	91
38.0230000000	100
38.0530000000	91
38.0830000000	89
38.1130000000	93
38.1430000000	92
38.1730000000	95
38.2030000000	104
38.2330000000	104
38.2630000000	101
38.2930000000	99
38.3230000000	84
38.3530000000	89
38.3830000000	89
38.4130000000	105
38.4430000000	100
38.4730000000	94
38.5030000000	102
38.5330000000	101
38.5630000000	92
38.5930000000	92
38.6230000000	90
38.6530000000	78
38.6830000000	98
38.7130000000	99
38.7430000000	96
38.7730000000	103
38.8030000000	102
38.8330000000	94
38.8630000000	93
38.8930000000	88
38.9230000000	92
38.9530000000	98
38.9830000000	95
39.0130000000	99
39.0430000000	85
39.0730000000	96
39.1030000000	97
39.1330000000	84
39.1630000000	102
39.1930000000	106
39.2230000000	98
39.2530000000	84
39.2830000000	108
39.3130000000	117
39.3430000000	89
39.3730000000	95
39.4030000000	110
39.4330000000	104
39.4630000000	73
39.4930000000	88
39.5230000000	102
39.5530000000	81
39.5830000000	94
39.6130000000	96
39.6430000000	100
39.6730000000	97
39.7030000000	90
39.7330000000	106
39.7630000000	93
39.7930000000	101
39.8230000000	120
39.8530000000	90
39.8830000000	91
39.9130000000	79
39.9430000000	96
39.9730000000	98
40.0030000000	96
40.0330000000	97
40.0630000000	98
40.0930000000	99
40.1230000000	96
40.1530000000	109
40.1830000000	96
40.2130000000	87
40.2430000000	108
40.2730000000	103
40.3030000000	101
40.3330000000	94
40.3630000000	91
40.3930000000	99
40.4230000000	83
40.4530000000	79
40.4830000000	103
40.5130000000	77
40.5430000000	87
40.5730000000	102
40.6030000000	103
40.6330000000	109
40.6630000000	117
40.6930000000	119
40.7230000000	149
40.7530000000	141
40.7830000000	223
40.8130000000	292
40.8430000000	369
40.8730000000	478
40.9030000000	496
40.9330000000	353
40.9630000000	313
40.9930000000	225
41.0230000000	172
41.0530000000	142
41.0830000000	130
41.1130000000	104
41.1430000000	99
41.1730000000	110
41.2030000000	104
41.2330000000	98
41.2630000000	107
41.2930000000	111
41.3230000000	111
41.3530000000	94
41.3830000000	90
41.4130000000	93
41.4430000000	101
41.4730000000	100
41.5030000000	92
41.5330000000	87
41.5630000000	85
41.5930000000	91
41.6230000000	100
41.6530000000	108
41.6830000000	105
41.7130000000	113
41.7430000000	81
41.7730000000	97
41.8030000000	107
41.8330000000	91
41.8630000000	98
41.8930000000	101
41.9230000000	98
41.9530000000	100
41.9830000000	94
42.0130000000	91
42.0430000000	84
42.0730000000	94
42.1030000000	100
42.1330000000	115
42.1630000000	121
42.1930000000	119
42.2230000000	145
42.2530000000	192
42.2830000000	203
42.3130000000	220
42.3430000000	221
42.3730000000	203
42.4030000000	207
42.4330000000	215
42.4630000000	238
42.4930000000	228
42.5230000000	216
42.5530000000	194
42.5830000000	158
42.6130000000	140
42.6430000000	135
42.6730000000	124
42.7030000000	114
42.7330000000	107
42.7630000000	91
42.7930000000	99
42.8230000000	92
42.8530000000	93
42.8830000000	86
42.9130000000	95
42.9430000000	102
42.9730000000	85
43.0030000000	100
43.0330000000	81
43.0630000000	90
43.0930000000	91
43.1230000000	87
43.1530000000	99
43.1830000000	95
43.2130000000	84
43.2430000000	103
43.2730000000	80
43.3030000000	88
43.3330000000	88
43.3630000000	101
43.3930000000	92
43.4230000000	107
43.4530000000	85
43.4830000000	103
43.5130000000	112
43.5430000000	76
43.5730000000	91
43.6030000000	88
43.6330000000	90
43.6630000000	90
43.6930000000	97
43.7230000000	94
43.7530000000	85
43.7830000000	86
43.8130000000	66
43.8430000000	101
43.8730000000	99
43.9030000000	90
43.9330000000	84
43.9630000000	88
43.9930000000	111
44.0230000000	87
44.0530000000	83
44.0830000000	92
44.1130000000	104
44.1430000000	81
44.1730000000	73
44.2030000000	87
44.2330000000	98
44.2630000000	80
44.2930000000	87
44.3230000000	99
44.3530000000	66
44.3830000000	90
44.4130000000	76
44.4430000000	84
44.4730000000	85
44.5030000000	84
44.5330000000	93
44.5630000000	74
44.5930000000	81
44.6230000000	72
44.6530000000	77
44.6830000000	87
44.7130000000	84
44.7430000000	78
44.7730000000	82
44.8030000000	80
44.8330000000	77
44.8630000000	96
44.8930000000	85
44.9230000000	94
44.9530000000	87
44.9830000000	94
45.0130000000	100
45.0430000000	90
45.0730000000	98
45.1030000000	87
45.1330000000	89
45.1630000000	78
45.1930000000	84
45.2230000000	88
45.2530000000	86
45.2830000000	96
45.3130000000	85
45.3430000000	80
45.3730000000	80
45.4030000000	83
45.4330000000	87
45.4630000000	81
45.4930000000	75
45.5230000000	96
45.5530000000	100
45.5830000000	77
45.6130000000	72
45.6430000000	84
45.6730000000	96
45.7030000000	88
45.7330000000	81
45.7630000000	89
45.7930000000	80
45.8230000000	77
45.8530000000	72
45.8830000000	82
45.9130000000	96
45.9430000000	67
45.9730000000	90
46.0030000000	80
46.0330000000	82
46.0630000000	87
46.0930000000	85
46.1230000000	71
46.1530000000	77
46.1830000000	88
46.2130000000	126
46.2430000000	118
46.2730000000	107
46.3030000000	103
46.3330000000	121
46.3630000000	116
46.3930000000	109
46.4230000000	96
46.4530000000	83
46.4830000000	101
46.5130000000	84
46.5430000000	88
46.5730000000	85
46.6030000000	82
46.6330000000	65
46.6630000000	62
46.6930000000	61
46.7230000000	86
46.7530000000	79
46.7830000000	61
46.8130000000	72
46.8430000000	97
46.8730000000	78
46.9030000000	72
46.9330000000	88
46.9630000000	76
46.9930000000	72
47.0230000000	76
47.0530000000	75
47.0830000000	92
47.1130000000	75
47.1430000000	92
47.1730000000	81
47.2030000000	70
47.2330000000	98
47.2630000000	75
47.2930000000	70
47.3230000000	67
47.3530000000	76
47.3830000000	76
47.4130000000	74
47.4430000000	67
47.4730000000	87
47.5030000000	75
47.5330000000	66
47.5630000000	52
47.5930000000	85
47.6230000000	86
47.6530000000	84
47.6830000000	75
47.7130000000	71
47.7430000000	72
47.7730000000	81
47.8030000000	57
47.8330000000	61
47.8630000000	54
47.8930000000	62
47.9230000000	75
47.9530000000	65
47.9830000000	74
48.0130000000	73
48.0430000000	67
48.0730000000	65
48.1030000000	77
48.1330000000	86
48.1630000000	83
48.1930000000	83
48.2230000000	65
48.2530000000	71
48.2830000000	74
48.3130000000	68
48.3430000000	78
48.3730000000	66
48.4030000000	77
48.4330000000	61
48.4630000000	59
48.4930000000	72
48.5230000000	72
48.5530000000	73
48.5830000000	82
48.6130000000	83
48.6430000000	67
48.6730000000	69
48.7030000000	71
48.7330000000	66
48.7630000000	73
48.7930000000	71
48.8230000000	75
48.8530000000	74
48.8830000000	65
48.9130000000	66
48.9430000000	66
48.9730000000	69
49.0030000000	66
49.0330000000	59
49.0630000000	69
49.0930000000	64
49.1230000000	80
49.1530000000	72
49.1830000000	67
49.2130000000	83
49.2430000000	55
49.2730000000	57
49.3030000000	70
49.3330000000	62
49.3630000000	65
49.3930000000	62
49.4230000000	63
49.4530000000	66
49.4830000000	67
49.5130000000	67
49.5430000000	67
49.5730000000	59
49.6030000000	73
49.6330000000	51
49.6630000000	60
49.6930000000	67
49.7230000000	76
49.7530000000	59
49.7830000000	60
49.8130000000	67
49.8430000000	70
49.8730000000	60
49.9030000000	63
49.9330000000	55
49.9630000000	87
49.9930000000	67
50.0230000000	81
50.0530000000	84
50.0830000000	62
50.1130000000	80
50.1430000000	79
50.1730000000	79
50.2030000000	80
50.2330000000	85
50.2630000000	101
50.2930000000	69
50.3230000000	93
50.3530000000	73
50.3830000000	75
50.4130000000	86
50.4430000000	64
50.4730000000	70
50.5030000000	63
50.5330000000	78
50.5630000000	72
50.5930000000	55
50.6230000000	69
50.6530000000	76
50.6830000000	74
50.7130000000	60
50.7430000000	59
50.7730000000	70
50.8030000000	64
50.8330000000	61
50.8630000000	57
50.8930000000	58
50.9230000000	49
50.9530000000	69
50.9830000000	69
51.0130000000	74
51.0430000000	66
51.0730000000	67
51.1030000000	74
51.1330000000	61
51.1630000000	59
51.1930000000	56
51.2230000000	59
51.2530000000	56
51.2830000000	66
51.3130000000	71
51.3430000000	71
51.3730000000	76
51.4030000000	74
51.4330000000	68
51.4630000000	60
51.4930000000	53
51.5230000000	63
51.5530000000	63
51.5830000000	62
51.6130000000	57
51.6430000000	51
51.6730000000	57
51.7030000000	59
51.7330000000	55
51.7630000000	67
51.7930000000	68
51.8230000000	57
51.8530000000	63
51.8830000000	57
51.9130000000	57
51.9430000000	58
51.9730000000	57
52.0030000000	63
52.0330000000	67
52.0630000000	67
52.0930000000	74
52.1230000000	66
52.1530000000	61
52.1830000000	71
52.2130000000	68
52.2430000000	56
52.2730000000	65
52.3030000000	65
52.3330000000	74
52.3630000000	63
52.3930000000	73
52.4230000000	76
52.4530000000	71
52.4830000000	68
52.5130000000	76
52.5430000000	65
52.5730000000	77
52.6030000000	62
52.6330000000	68
52.6630000000	59
52.6930000000	61
52.7230000000	62
52.7530000000	59
52.7830000000	63
52.8130000000	51
52.8430000000	60
52.8730000000	69
52.9030000000	61
52.9330000000	80
52.9630000000	59
52.9930000000	69
53.0230000000	68
53.0530000000	53
53.0830000000	58
53.1130000000	61
53.1430000000	78
53.1730000000	50
53.2030000000	66
53.2330000000	59
53.2630000000	68
53.2930000000	56
53.3230000000	72
53.3530000000	62
53.3830000000	61
53.4130000000	58
53.4430000000	66
53.4730000000	47
53.5030000000	56
53.5330000000	54
53.5630000000	60
53.5930000000	54
53.6230000000	57
53.6530000000	53
53.6830000000	51
53.7130000000	56
53.7430000000	59
53.7730000000	64
53.8030000000	64
53.8330000000	48
53.8630000000	53
53.8930000000	55
53.9230000000	62
53.9530000000	42
53.9830000000	49
54.0130000000	62
54.0430000000	58
54.0730000000	39
54.1030000000	44
54.1330000000	50
54.1630000000	57
54.1930000000	77
54.2230000000	64
54.2530000000	62
54.2830000000	51
54.3130000000	54
54.3430000000	41
54.3730000000	67
54.4030000000	61
54.4330000000	53
54.4630000000	47
54.4930000000	58
54.5230000000	58
54.5530000000	60
54.5830000000	66
54.6130000000	48
54.6430000000	52
54.6730000000	49
54.7030000000	50
54.7330000000	60
54.7630000000	58
54.7930000000	65
54.8230000000	55
54.8530000000	52
54.8830000000	60
54.9130000000	69
54.9430000000	59
54.9730000000	51
55.0030000000	59
55.0330000000	60
55.0630000000	54
55.0930000000	58
55.1230000000	42
55.1530000000	52
55.1830000000	45
55.2130000000	59
55.2430000000	48
55.2730000000	44
55.3030000000	47
55.3330000000	52
55.3630000000	61
55.3930000000	48
55.4230000000	59
55.4530000000	71
55.4830000000	60
55.5130000000	53
55.5430000000	57
55.5730000000	66
55.6030000000	43
55.6330000000	48
55.6630000000	55
55.6930000000	48
55.7230000000	42
55.7530000000	51
55.7830000000	50
55.8130000000	45
55.8430000000	44
55.8730000000	53
55.9030000000	64
55.9330000000	58
55.9630000000	53
55.9930000000	70
56.0230000000	57
56.0530000000	62
56.0830000000	55
56.1130000000	51
56.1430000000	58
56.1730000000	50
56.2030000000	49
56.2330000000	57
56.2630000000	56
56.2930000000	47
56.3230000000	44
56.3530000000	47
56.3830000000	52
56.4130000000	62
56.4430000000	55
56.4730000000	49
56.5030000000	52
56.5330000000	65
56.5630000000	68
56.5930000000	56
56.6230000000	56
56.6530000000	56
56.6830000000	54
56.7130000000	56
56.7430000000	44
56.7730000000	50
56.8030000000	46
56.8330000000	49
56.8630000000	50
56.8930000000	53
56.9230000000	56
56.9530000000	61
56.9830000000	59
57.0130000000	56
57.0430000000	70
57.0730000000	67
57.1030000000	85
57.1330000000	80
57.1630000000	63
57.1930000000	66
57.2230000000	60
57.2530000000	58
57.2830000000	71
57.3130000000	60
57.3430000000	55
57.3730000000	62
57.4030000000	70
57.4330000000	48
57.4630000000	49
57.4930000000	57
57.5230000000	54
57.5530000000	61
57.5830000000	55
57.6130000000	41
57.6430000000	60
57.6730000000	49
57.7030000000	64
57.7330000000	50
57.7630000000	55
57.7930000000	59
57.8230000000	50
57.8530000000	59
57.8830000000	45
57.9130000000	46
57.9430000000	50
57.9730000000	48
58.0030000000	50
58.0330000000	51
58.0630000000	67
58.0930000000	62
58.1230000000	35
58.1530000000	52
58.1830000000	42
58.2130000000	59
58.2430000000	42
58.2730000000	53
58.3030000000	57
58.3330000000	49
58.3630000000	60
58.3930000000	51
58.4230000000	63
58.4530000000	50
58.4830000000	56
58.5130000000	37
58.5430000000	46
58.5730000000	60
58.6030000000	56
58.6330000000	44
58.6630000000	56
58.6930000000	61
58.7230000000	56
58.7530000000	46
58.7830000000	59
58.8130000000	54
58.8430000000	45
58.8730000000	56
58.9030000000	47
58.9330000000	39
58.9630000000	37
58.9930000000	54
59.0230000000	53
59.0530000000	48
59.0830000000	47
59.1130000000	47
59.1430000000	46
59.1730000000	43
59.2030000000	51
59.2330000000	59
59.2630000000	57
59.2930000000	54
59.3230000000	44
59.3530000000	37
59.3830000000	48
59.4130000000	46
59.4430000000	46
59.4730000000	49
59.5030000000	52
59.5330000000	50
59.5630000000	53
59.5930000000	59
59.6230000000	52
59.6530000000	55
59.6830000000	56
59.7130000000	51
59.7430000000	50
59.7730000000	62
59.8030000000	50
59.8330000000	51
59.8630000000	45
59.8930000000	48
59.9230000000	55
59.9530000000	46
59.9830000000	44
60.0130000000	55
60.0430000000	39
60.0730000000	56
60.1030000000	53
60.1330000000	48
60.1630000000	41
60.1930000000	52
60.2230000000	59
60.2530000000	59
60.2830000000	53
60.3130000000	53
60.3430000000	77
60.3730000000	68
60.4030000000	58
60.4330000000	56
60.4630000000	80
60.4930000000	59
60.5230000000	65
60.5530000000	60
60.5830000000	60
60.6130000000	63
60.6430000000	58
60.6730000000	54
60.7030000000	53
60.7330000000	56
60.7630000000	48
60.7930000000	47
60.8230000000	50
60.8530000000	39
60.8830000000	64
60.9130000000	49
60.9430000000	59
60.9730000000	51
61.0030000000	53
61.0330000000	50
61.0630000000	43
61.0930000000	59
61.1230000000	47
61.1530000000	52
61.1830000000	53
61.2130000000	51
61.2430000000	45
61.2730000000	38
61.3030000000	30
61.3330000000	49
61.3630000000	54
61.3930000000	50
61.4230000000	46
61.4530000000	47
61.4830000000	62
61.5130000000	42
61.5430000000	53
61.5730000000	39
61.6030000000	60
61.6330000000	51
61.6630000000	56
61.6930000000	36
61.7230000000	46
61.7530000000	47
61.7830000000	42
61.8130000000	48
61.8430000000	46
61.8730000000	34
61.9030000000	46
61.9330000000	48
61.9630000000	47
61.9930000000	33
62.0230000000	43
62.0530000000	54
62.0830000000	39
62.1130000000	46
62.1430000000	46
62.1730000000	46
62.2030000000	55
62.2330000000	43
62.2630000000	37
62.2930000000	47
62.3230000000	58
62.3530000000	53
62.3830000000	49
62.4130000000	61
62.4430000000	51
62.4730000000	59
62.5030000000	65
62.5330000000	47
62.5630000000	56
62.5930000000	71
62.6230000000	49
62.6530000000	45
62.6830000000	38
62.7130000000	49
62.7430000000	57
62.7730000000	38
62.8030000000	46
62.8330000000	50
62.8630000000	44
62.8930000000	56
62.9230000000	48
62.9530000000	51
62.9830000000	55
63.0130000000	46
63.0430000000	47
63.0730000000	52
63.1030000000	53
63.1330000000	53
63.1630000000	52
63.1930000000	54
63.2230000000	54
63.2530000000	49
63.2830000000	54
63.3130000000	73
63.3430000000	82
63.3730000000	81
63.4030000000	82
63.4330000000	81
63.4630000000	83
63.4930000000	96
63.5230000000	100
63.5530000000	88
63.5830000000	66
63.6130000000	59
63.6430000000	69
63.6730000000	61
63.7030000000	63
63.7330000000	40
63.7630000000	44
63.7930000000	43
63.8230000000	47
63.8530000000	37
63.8830000000	50
63.9130000000	51
63.9430000000	41
63.9730000000	48
64.0030000000	55
64.0330000000	48
64.0630000000	43
64.0930000000	59
64.1230000000	52
64.1530000000	52
64.1830000000	39
64.2130000000	49
64.2430000000	57
64.2730000000	56
64.3030000000	57
64.3330000000	51
64.3630000000	45
64.3930000000	38
64.4230000000	50
64.4530000000	44
64.4830000000	57
64.5130000000	45
64.5430000000	49
64.5730000000	44
64.6030000000	60
64.6330000000	46
64.6630000000	47
64.6930000000	50
64.7230000000	36
64.7530000000	45
64.7830000000	45
64.8130000000	49
64.8430000000	47
64.8730000000	48
64.9030000000	53
64.9330000000	33
64.9630000000	40
64.9930000000	46
65.0230000000	53
65.0530000000	53
65.0830000000	49
65.1130000000	49
65.1430000000	43
65.1730000000	42
65.2030000000	38
65.2330000000	50
65.2630000000	56
65.2930000000	46
65.3230000000	45
65.3530000000	46
65.3830000000	45
65.4130000000	36
65.4430000000	50
65.4730000000	50
65.5030000000	42
65.5330000000	56
65.5630000000	43
65.5930000000	50
65.6230000000	53
65.6530000000	44
65.6830000000	36
65.7130000000	51
65.7430000000	61
65.7730000000	42
65.8030000000	46
65.8330000000	40
65.8630000000	54
65.8930000000	47
65.9230000000	33
65.9530000000	49
65.9830000000	40
66.0130000000	42
66.0430000000	41
66.0730000000	53
66.1030000000	58
66.1330000000	59
66.1630000000	59
66.1930000000	52
66.2230000000	43
66.2530000000	53
66.2830000000	51
66.3130000000	46
66.3430000000	46
66.3730000000	47
66.4030000000	51
66.4330000000	56
66.4630000000	51
66.4930000000	43
66.5230000000	46
66.5530000000	52
66.5830000000	45
66.6130000000	39
66.6430000000	45
66.6730000000	41
66.7030000000	54
66.7330000000	41
66.7630000000	49
66.7930000000	49
66.8230000000	38
66.8530000000	51
66.8830000000	37
66.9130000000	46
66.9430000000	44
66.9730000000	48
67.0030000000	51
67.0330000000	52
67.0630000000	56
67.0930000000	39
67.1230000000	32
67.1530000000	48
67.1830000000	43
67.2130000000	30
67.2430000000	45
67.2730000000	49
67.3030000000	52
67.3330000000	53
67.3630000000	57
67.3930000000	39
67.4230000000	30
67.4530000000	42
67.4830000000	46
67.5130000000	46
67.5430000000	50
67.5730000000	53
67.6030000000	44
67.6330000000	41
67.6630000000	43
67.6930000000	42
67.7230000000	39
67.7530000000	43
67.7830000000	44
67.8130000000	35
67.8430000000	37
67.8730000000	49
67.9030000000	48
67.9330000000	34
67.9630000000	47
67.9930000000	50
68.0230000000	32
68.0530000000	38
68.0830000000	52
68.1130000000	47
68.1430000000	47
68.1730000000	51
68.2030000000	47
68.2330000000	58
68.2630000000	39
68.2930000000	49
68.3230000000	41
68.3530000000	53
68.3830000000	43
68.4130000000	30
68.4430000000	45
68.4730000000	37
68.5030000000	34
68.5330000000	62
68.5630000000	64
68.5930000000	42
68.6230000000	42
68.6530000000	45
68.6830000000	38
68.7130000000	47
68.7430000000	44
68.7730000000	45
68.8030000000	43
68.8330000000	41
68.8630000000	42
68.8930000000	48
68.9230000000	38
68.9530000000	49
68.9830000000	47
69.0130000000	57
69.0430000000	46
69.0730000000	36
69.1030000000	57
69.1330000000	58
69.1630000000	46
69.1930000000	39
69.2230000000	47
69.2530000000	42
69.2830000000	48
69.3130000000	43
69.3430000000	42
69.3730000000	49
69.4030000000	51
69.4330000000	63
69.4630000000	47
69.4930000000	33
69.5230000000	37
69.5530000000	48
69.5830000000	48
69.6130000000	46
69.6430000000	50
69.6730000000	52
69.7030000000	57
69.7330000000	58
69.7630000000	53
69.7930000000	41
69.8230000000	48
69.8530000000	49
69.8830000000	48
69.9130000000	47
69.9430000000	29
69.9730000000	51
70.0030000000	45
70.0330000000	47
70.0630000000	49
70.0930000000	53
70.1230000000	39
70.1530000000	37
70.1830000000	50
70.2130000000	48
70.2430000000	42
70.2730000000	51
70.3030000000	47
70.3330000000	55
70.3630000000	46
70.3930000000	40
70.4230000000	37
70.4530000000	46
70.4830000000	43
70.5130000000	55
70.5430000000	47
70.5730000000	49
70.6030000000	46
70.6330000000	35
70.6630000000	37
70.6930000000	52
70.7230000000	45
70.7530000000	46
70.7830000000	49
70.8130000000	27
70.8430000000	53
70.8730000000	34
70.9030000000	42
70.9330000000	48
70.9630000000	39
70.9930000000	40
71.0230000000	43
71.0530000000	44
71.0830000000	48
71.1130000000	44
71.1430000000	48
71.1730000000	48
71.2030000000	38
71.2330000000	43
71.2630000000	42
71.2930000000	52
71.3230000000	47
71.3530000000	45
71.3830000000	52
71.4130000000	50
71.4430000000	47
71.4730000000	40
71.5030000000	49
71.5330000000	51
71.5630000000	52
71.5930000000	35
71.6230000000	32
71.6530000000	45
71.6830000000	50
71.7130000000	38
71.7430000000	48
71.7730000000	53
71.8030000000	51
71.8330000000	47
71.8630000000	47
71.8930000000	45
71.9230000000	59
71.9530000000	51
71.9830000000	57
72.0130000000	46
72.0430000000	47
72.0730000000	48
72.1030000000	42
72.1330000000	31
72.1630000000	40
72.1930000000	47
72.2230000000	56
72.2530000000	46
72.2830000000	47
72.3130000000	49
72.3430000000	41
72.3730000000	62
72.4030000000	57
72.4330000000	64
72.4630000000	68
72.4930000000	70
72.5230000000	62
72.5530000000	62
72.5830000000	46
72.6130000000	53
72.6430000000	68
72.6730000000	59
72.7030000000	51
72.7330000000	51
72.7630000000	50
72.7930000000	41
72.8230000000	49
72.8530000000	51
72.8830000000	47
72.9130000000	37
72.9430000000	56
72.9730000000	48
73.0030000000	44
73.0330000000	40
73.0630000000	50
73.0930000000	45
73.1230000000	38
73.1530000000	48
73.1830000000	47
73.2130000000	35
73.2430000000	43
73.2730000000	41
73.3030000000	45
73.3330000000	52
73.3630000000	45
73.3930000000	42
73.4230000000	49
73.4530000000	54
73.4830000000	45
73.5130000000	41
73.5430000000	50
73.5730000000	45
73.6030000000	44
73.6330000000	48
73.6630000000	55
73.6930000000	53
73.7230000000	38
73.7530000000	37
73.7830000000	48
73.8130000000	42
73.8430000000	35
73.8730000000	47
73.9030000000	59
73.9330000000	46
73.9630000000	34
73.9930000000	44
74.0230000000	57
74.0530000000	43
74.0830000000	50
74.1130000000	43
74.1430000000	46
74.1730000000	49
74.2030000000	50
74.2330000000	45
74.2630000000	55
74.2930000000	45
74.3230000000	42
74.3530000000	49
74.3830000000	40
74.4130000000	52
74.4430000000	41
74.4730000000	45
74.5030000000	44
74.5330000000	37
74.5630000000	48
74.5930000000	47
74.6230000000	53
74.6530000000	46
74.6830000000	47
74.7130000000	56
74.7430000000	56
74.7730000000	46
74.8030000000	40
74.8330000000	49
74.8630000000	44
74.8930000000	45
74.9230000000	38
74.9530000000	47
74.9830000000	47
75.0130000000	56
75.0430000000	57
75.0730000000	40
75.1030000000	59
75.1330000000	36
75.1630000000	56
75.1930000000	52
75.2230000000	53
75.2530000000	47
75.2830000000	59
75.3130000000	64
75.3430000000	77
75.3730000000	101
75.4030000000	124
75.4330000000	156
75.4630000000	216
75.4930000000	268
75.5230000000	270
75.5530000000	298
75.5830000000	252
75.6130000000	229
75.6430000000	220
75.6730000000	189
75.7030000000	182
75.7330000000	199
75.7630000000	162
75.7930000000	141
75.8230000000	91
75.8530000000	62
75.8830000000	70
75.9130000000	73
75.9430000000	55
75.9730000000	46
76.0030000000	40
76.0330000000	46
76.0630000000	44
76.0930000000	43
76.1230000000	52
76.1530000000	48
76.1830000000	40
76.2130000000	45
76.2430000000	48
76.2730000000	44
76.3030000000	51
76.3330000000	54
76.3630000000	50
76.3930000000	41
76.4230000000	41
76.4530000000	36
76.4830000000	45
76.5130000000	52
76.5430000000	51
76.5730000000	41
76.6030000000	48
76.6330000000	40
76.6630000000	49
76.6930000000	60
76.7230000000	52
76.7530000000	42
76.7830000000	44
76.8130000000	52
76.8430000000	51
76.8730000000	45
76.9030000000	40
76.9330000000	43
76.9630000000	45
76.9930000000	49
77.0230000000	47
77.0530000000	40
77.0830000000	49
77.1130000000	57
77.1430000000	44
77.1730000000	34
77.2030000000	48
77.2330000000	40
77.2630000000	38
77.2930000000	41
77.3230000000	38
77.3530000000	49
77.3830000000	42
77.4130000000	44
77.4430000000	44
77.4730000000	31
77.5030000000	64
77.5330000000	32
77.5630000000	46
77.5930000000	48
77.6230000000	34
77.6530000000	46
77.6830000000	42
77.7130000000	42
77.7430000000	38
77.7730000000	40
77.8030000000	40
77.8330000000	54
77.8630000000	36
77.8930000000	37
77.9230000000	37
77.9530000000	42
77.9830000000	42
78.0130000000	50
78.0430000000	51
78.0730000000	40
78.1030000000	36
78.1330000000	34
78.1630000000	45
78.1930000000	37
78.2230000000	48
78.2530000000	36
78.2830000000	49
78.3130000000	37
78.3430000000	45
78.3730000000	33
78.4030000000	54
78.4330000000	43
78.4630000000	45
78.4930000000	49
78.5230000000	48
78.5530000000	48
78.5830000000	30
78.6130000000	33
78.6430000000	42
78.6730000000	42
78.7030000000	45
78.7330000000	50
78.7630000000	33
78.7930000000	40
78.8230000000	32
78.8530000000	48
78.8830000000	48
78.9130000000	35
78.9430000000	32
78.9730000000	51
79.0030000000	44
79.0330000000	36
79.0630000000	41
79.0930000000	44
79.1230000000	43
79.1530000000	38
79.1830000000	42
79.2130000000	36
79.2430000000	38
79.2730000000	47
79.3030000000	33
79.3330000000	51
79.3630000000	33
79.3930000000	55
79.4230000000	25
79.4530000000	45
79.4830000000	45
79.5130000000	39
79.5430000000	45
79.5730000000	44
79.6030000000	33
79.6330000000	31
79.6630000000	40
79.6930000000	35
79.7230000000	46
79.7530000000	35
79.7830000000	47
79.8130000000	44
79.8430000000	43
79.8730000000	36
79.9030000000	44
79.9330000000	47
79.9630000000	48
79.9930000000	43
80.0230000000	55
80.0530000000	34
80.0830000000	36
80.1130000000	44
80.1430000000	44
80.1730000000	45
80.2030000000	42
80.2330000000	40
80.2630000000	39
80.2930000000	31
80.3230000000	40
80.3530000000	37
80.3830000000	32
80.4130000000	44
80.4430000000	48
80.4730000000	41
80.5030000000	41
80.5330000000	49
80.5630000000	43
80.5930000000	48
80.6230000000	51
80.6530000000	38
80.6830000000	42
80.7130000000	37
80.7430000000	44
80.7730000000	34
80.8030000000	52
80.8330000000	41
80.8630000000	36
80.8930000000	44
80.9230000000	32
80.9530000000	37
80.9830000000	55
81.0130000000	53
81.0430000000	39
81.0730000000	37
81.1030000000	52
81.1330000000	41
81.1630000000	43
81.1930000000	46
81.2230000000	33
81.2530000000	41
81.2830000000	47
81.3130000000	41
81.3430000000	41
81.3730000000	39
81.4030000000	28
81.4330000000	40
81.4630000000	39
81.4930000000	39
81.5230000000	37
81.5530000000	39
81.5830000000	38
81.6130000000	36
81.6430000000	47
81.6730000000	29
81.7030000000	44
81.7330000000	38
81.7630000000	44
81.7930000000	49
81.8230000000	37
81.8530000000	42
81.8830000000	53
81.9130000000	34
81.9430000000	42
81.9730000000	42
82.0030000000	47
82.0330000000	46
82.0630000000	37
82.0930000000	36
82.1230000000	46
82.1530000000	44
82.1830000000	42
82.2130000000	37
82.2430000000	39
82.2730000000	40
82.3030000000	40
82.3330000000	36
82.3630000000	45
82.3930000000	37
82.4230000000	34
82.4530000000	36
82.4830000000	36
82.5130000000	42
82.5430000000	35
82.5730000000	43
82.6030000000	44
82.6330000000	36
82.6630000000	41
82.6930000000	34
82.7230000000	33
82.7530000000	42
82.7830000000	46
82.8130000000	35
82.8430000000	40
82.8730000000	37
82.9030000000	50
82.9330000000	40
82.9630000000	43
82.9930000000	44
83.0230000000	42
83.0530000000	36
83.0830000000	47
83.1130000000	44
83.1430000000	31
83.1730000000	34
83.2030000000	40
83.2330000000	37
83.2630000000	42
83.2930000000	31
83.3230000000	39
83.3530000000	50
83.3830000000	50
83.4130000000	39
83.4430000000	35
83.4730000000	41
83.5030000000	39
83.5330000000	34
83.5630000000	35
83.5930000000	36
83.6230000000	35
83.6530000000	42
83.6830000000	38
83.7130000000	43
83.7430000000	36
83.7730000000	45
83.8030000000	44
83.8330000000	32
83.8630000000	44
83.8930000000	42
83.9230000000	45
83.9530000000	31
83.9830000000	35
84.0130000000	41
84.0430000000	30
84.0730000000	45
84.1030000000	49
84.1330000000	38
84.1630000000	28
84.1930000000	47
84.2230000000	32
84.2530000000	44
84.2830000000	33
84.3130000000	33
84.3430000000	43
84.3730000000	43
84.4030000000	36
84.4330000000	45
84.4630000000	43
84.4930000000	44
84.5230000000	28
84.5530000000	42
84.5830000000	39
84.6130000000	35
84.6430000000	44
84.6730000000	39
84.7030000000	38
84.7330000000	36
84.7630000000	43
84.7930000000	37
84.8230000000	34
84.8530000000	43
84.8830000000	49
84.9130000000	38
84.9430000000	41
84.9730000000	31
85.0030000000	34
85.0330000000	31
85.0630000000	31
85.0930000000	36
85.1230000000	36
85.1530000000	40
85.1830000000	30
85.2130000000	29
85.2430000000	36
85.2730000000	29
85.3030000000	44
85.3330000000	49
85.3630000000	26
85.3930000000	40
85.4230000000	39
85.4530000000	31
85.4830000000	46
85.5130000000	34
85.5430000000	37
85.5730000000	36
85.6030000000	31
85.6330000000	31
85.6630000000	40
85.6930000000	37
85.7230000000	34
85.7530000000	41
85.7830000000	50
85.8130000000	40
85.8430000000	42
85.8730000000	45
85.9030000000	36
85.9330000000	46
85.9630000000	38
85.9930000000	36
86.0230000000	47
86.0530000000	44
86.0830000000	34
86.1130000000	43
86.1430000000	37
86.1730000000	26
86.2030000000	38
86.2330000000	49
86.2630000000	31
86.2930000000	40
86.3230000000	39
86.3530000000	44
86.3830000000	38
86.4130000000	31
86.4430000000	44
86.4730000000	41
86.5030000000	30
86.5330000000	33
86.5630000000	47
86.5930000000	38
86.6230000000	32
86.6530000000	32
86.6830000000	35
86.7130000000	44
86.7430000000	48
86.7730000000	40
86.8030000000	41
86.8330000000	51
86.8630000000	35
86.8930000000	41
86.9230000000	38
86.9530000000	30
86.9830000000	32
87.0130000000	42
87.0430000000	31
87.0730000000	30
87.1030000000	45
87.1330000000	40
87.1630000000	37
87.1930000000	39
87.2230000000	41
87.2530000000	45
87.2830000000	40
87.3130000000	31
87.3430000000	47
87.3730000000	36
87.4030000000	33
87.4330000000	39
87.4630000000	50
87.4930000000	48
87.5230000000	42
87.5530000000	43
87.5830000000	30
87.6130000000	32
87.6430000000	47
87.6730000000	45
87.7030000000	44
87.7330000000	30
87.7630000000	34
87.7930000000	43
87.8230000000	37
87.8530000000	35
87.8830000000	33
87.9130000000	33
87.9430000000	40
87.9730000000	30
88.0030000000	36
88.0330000000	44
88.0630000000	44
88.0930000000	43
88.1230000000	48
88.1530000000	45
88.1830000000	37
88.2130000000	36
88.2430000000	43
88.2730000000	37
88.3030000000	54
88.3330000000	37
88.3630000000	45
88.3930000000	39
88.4230000000	47
88.4530000000	57
88.4830000000	46
88.5130000000	52
88.5430000000	62
88.5730000000	57
88.6030000000	44
88.6330000000	44
88.6630000000	40
88.6930000000	54
88.7230000000	45
88.7530000000	44
88.7830000000	52
88.8130000000	34
88.8430000000	47
88.8730000000	49
88.9030000000	54
88.9330000000	44
88.9630000000	43
88.9930000000	39
89.0230000000	47
89.0530000000	47
89.0830000000	38
89.1130000000	42
89.1430000000	38
89.1730000000	29
89.2030000000	28
89.2330000000	38
89.2630000000	40
89.2930000000	41
89.3230000000	42
89.3530000000	40
89.3830000000	38
89.4130000000	37
89.4430000000	41
89.4730000000	47
89.5030000000	39
89.5330000000	40
89.5630000000	46
89.5930000000	31
89.6230000000	36
89.6530000000	34
89.6830000000	30
89.7130000000	34
89.7430000000	40
89.7730000000	49
89.8030000000	39
89.8330000000	34
89.8630000000	45
89.8930000000	38
89.9230000000	32
89.9530000000	42
89.9830000000	43
90.0130000000	43
90.0430000000	33
90.0730000000	41
90.1030000000	26
90.1330000000	38
90.1630000000	37
90.1930000000	43
90.2230000000	37
90.2530000000	41
90.2830000000	41
90.3130000000	40
90.3430000000	32
90.3730000000	48
90.4030000000	31
90.4330000000	41
90.4630000000	32
90.4930000000	37
90.5230000000	41
90.5530000000	35
90.5830000000	25
90.6130000000	41
90.6430000000	45
90.6730000000	39
90.7030000000	35
90.7330000000	40
90.7630000000	38
90.7930000000	36
90.8230000000	59
90.8530000000	50
90.8830000000	35
90.9130000000	33
90.9430000000	43
90.9730000000	37
91.0030000000	34
91.0330000000	34
91.0630000000	47
91.0930000000	37
91.1230000000	42
91.1530000000	35
91.1830000000	45
91.2130000000	37
91.2430000000	45
91.2730000000	37
91.3030000000	35
91.3330000000	49
91.3630000000	42
91.3930000000	47
91.4230000000	37
91.4530000000	37
91.4830000000	41
91.5130000000	39
91.5430000000	42
91.5730000000	41
91.6030000000	34
91.6330000000	39
91.6630000000	39
91.6930000000	35
91.7230000000	48
91.7530000000	39
91.7830000000	37
91.8130000000	38
91.8430000000	56
91.8730000000	48
91.9030000000	46
91.9330000000	42
91.9630000000	40
91.9930000000	46
92.0230000000	38
92.0530000000	35
92.0830000000	40
92.1130000000	36
92.1430000000	43
92.1730000000	42
92.2030000000	44
92.2330000000	44
92.2630000000	35
92.2930000000	36
92.3230000000	41
92.3530000000	36
92.3830000000	32
92.4130000000	38
92.4430000000	45
92.4730000000	47
92.5030000000	42
92.5330000000	35
92.5630000000	33
92.5930000000	53
92.6230000000	38
92.6530000000	44
92.6830000000	43
92.7130000000	52
92.7430000000	56
92.7730000000	44
92.8030000000	40
92.8330000000	33
92.8630000000	36
92.8930000000	39
92.9230000000	42
92.9530000000	36
92.9830000000	42
93.0130000000	49
93.0430000000	48
93.0730000000	37
93.1030000000	29
93.1330000000	29
93.1630000000	48
93.1930000000	41
93.2230000000	38
93.2530000000	49
93.2830000000	41
93.3130000000	44
93.3430000000	45
93.3730000000	37
93.4030000000	37
93.4330000000	36
93.4630000000	32
93.4930000000	44
93.5230000000	35
93.5530000000	33
93.5830000000	33
93.6130000000	33
93.6430000000	35
93.6730000000	40
93.7030000000	36
93.7330000000	43
93.7630000000	39
93.7930000000	39
93.8230000000	27
93.8530000000	37
93.8830000000	40
93.9130000000	40
93.9430000000	42
93.9730000000	43
94.0030000000	38
94.0330000000	48
94.0630000000	37
94.0930000000	45
94.1230000000	37
94.1530000000	40
94.1830000000	36
94.2130000000	40
94.2430000000	52
94.2730000000	38
94.3030000000	39
94.3330000000	59
94.3630000000	47
94.3930000000	54
94.4230000000	60
94.4530000000	61
94.4830000000	61
94.5130000000	50
94.5430000000	47
94.5730000000	55
94.6030000000	42
94.6330000000	39
94.6630000000	57
94.6930000000	57
94.7230000000	45
94.7530000000	44
94.7830000000	43
94.8130000000	36
94.8430000000	47
94.8730000000	56
94.9030000000	44
94.9330000000	41
94.9630000000	45
94.9930000000	33
95.0230000000	45
95.0530000000	33
95.0830000000	51
95.1130000000	30
95.1430000000	40
95.1730000000	50
95.2030000000	45
95.2330000000	40
95.2630000000	42
95.2930000000	41
95.3230000000	33
95.3530000000	40
95.3830000000	55
95.4130000000	44
95.4430000000	35
95.4730000000	46
95.5030000000	44
95.5330000000	49
95.5630000000	40
95.5930000000	48
95.6230000000	36
95.6530000000	35
95.6830000000	44
95.7130000000	47
95.7430000000	46
95.7730000000	48
95.8030000000	51
95.8330000000	35
95.8630000000	39
95.8930000000	35
95.9230000000	33
95.9530000000	37
95.9830000000	27
96.0130000000	39
96.0430000000	44
96.0730000000	37
96.1030000000	42
96.1330000000	41
96.1630000000	40
96.1930000000	50
96.2230000000	39
96.2530000000	30
96.2830000000	44
96.3130000000	40
96.3430000000	32
96.3730000000	32
96.4030000000	39
96.4330000000	41
96.4630000000	45
96.4930000000	45
96.5230000000	25
96.5530000000	46
96.5830000000	41
96.6130000000	49
96.6430000000	43
96.6730000000	41
96.7030000000	33
96.7330000000	43
96.7630000000	31
96.7930000000	38
96.8230000000	38
96.8530000000	36
96.8830000000	42
96.9130000000	36
96.9430000000	34
96.9730000000	34
97.0030000000	31
97.0330000000	39
97.0630000000	41
97.0930000000	39
97.1230000000	37
97.1530000000	34
97.1830000000	46
97.2130000000	37
97.2430000000	37
97.2730000000	39
97.3030000000	26
97.3330000000	41
97.3630000000	44
97.3930000000	39
97.4230000000	41
97.4530000000	40
97.4830000000	42
97.5130000000	44
97.5430000000	43
97.5730000000	41
97.6030000000	42
97.6330000000	33
97.6630000000	43
97.6930000000	39
97.7230000000	26
97.7530000000	42
97.7830000000	36
97.8130000000	31
97.8430000000	41
97.8730000000	53
97.9030000000	44
97.9330000000	38
97.9630000000	45
97.9930000000	43
98.0230000000	38
98.0530000000	51
98.0830000000	44
98.1130000000	39
98.1430000000	43
98.1730000000	35
98.2030000000	30
98.2330000000	46
98.2630000000	50
98.2930000000	33
98.3230000000	58
98.3530000000	42
98.3830000000	41
98.4130000000	48
98.4430000000	36
98.4730000000	38
98.5030000000	42
98.5330000000	42
98.5630000000	38
98.5930000000	37
98.6230000000	34
98.6530000000	32
98.6830000000	30
98.7130000000	38
98.7430000000	43
98.7730000000	42
98.8030000000	43
98.8330000000	40
98.8630000000	34
98.8930000000	35
98.9230000000	48
98.9530000000	29
98.9830000000	32
99.0130000000	43
99.0430000000	36
99.0730000000	31
99.1030000000	47
99.1330000000	45
99.1630000000	44
99.1930000000	42
99.2230000000	41
99.2530000000	32
99.2830000000	38
99.3130000000	48
99.3430000000	35
99.3730000000	42
99.4030000000	35
99.4330000000	33
99.4630000000	36
99.4930000000	33
99.5230000000	42
99.5530000000	35
99.5830000000	49
99.6130000000	37
99.6430000000	43
99.6730000000	42
99.7030000000	27
99.7330000000	34
99.7630000000	29
99.7930000000	38
99.8230000000	45
99.8530000000	36
99.8830000000	34
99.9130000000	31
99.9430000000	33
99.9730000000	46
100.0030000000	48
100.0330000000	38
100.0630000000	42
100.0930000000	40
100.1230000000	34
100.1530000000	28
100.1830000000	28
100.2130000000	39
100.2430000000	43
100.2730000000	42
100.3030000000	42
100.3330000000	34
100.3630000000	44
100.3930000000	36
100.4230000000	47
100.4530000000	32
100.4830000000	38
100.5130000000	28
100.5430000000	33
100.5730000000	35
100.6030000000	43
100.6330000000	27
100.6630000000	41
100.6930000000	30
100.7230000000	46
100.7530000000	33
100.7830000000	39
100.8130000000	45
100.8430000000	38
100.8730000000	43
100.9030000000	46
100.9330000000	41
100.9630000000	37
100.9930000000	50
101.0230000000	45
101.0530000000	38
101.0830000000	41
101.1130000000	38
101.1430000000	39
101.1730000000	39
101.2030000000	34
101.2330000000	32
101.2630000000	37
101.2930000000	45
101.3230000000	27
101.3530000000	43
101.3830000000	39
101.4130000000	32
101.4430000000	42
101.4730000000	30
101.5030000000	31
101.5330000000	34
101.5630000000	36
101.5930000000	50
101.6230000000	49
101.6530000000	35
101.6830000000	39
101.7130000000	50
101.7430000000	29
101.7730000000	31
101.8030000000	38
101.8330000000	39
101.8630000000	41
101.8930000000	42
101.9230000000	39
101.9530000000	44
101.9830000000	36
102.0130000000	37
102.0430000000	28
102.0730000000	41
102.1030000000	34
102.1330000000	30
102.1630000000	31
102.1930000000	36
102.2230000000	32
102.2530000000	37
102.2830000000	46
102.3130000000	45
102.3430000000	22
102.3730000000	42
102.4030000000	31
102.4330000000	41
102.4630000000	41
102.4930000000	46
102.5230000000	46
102.5530000000	32
102.5830000000	44
102.6130000000	46
102.6430000000	38
102.6730000000	43
102.7030000000	43
102.7330000000	42
102.7630000000	30
102.7930000000	46
102.8230000000	43
102.8530000000	49
102.8830000000	63
102.9130000000	52
102.9430000000	54
102.9730000000	68
103.0030000000	74
103.0330000000	60
103.0630000000	51
103.0930000000	41
103.1230000000	38
103.1530000000	44
103.1830000000	44
103.2130000000	38
103.2430000000	42
103.2730000000	48
103.3030000000	43
103.3330000000	38
103.3630000000	34
103.3930000000	43
103.4230000000	46
103.4530000000	31
103.4830000000	34
103.5130000000	44
103.5430000000	31
103.5730000000	38
103.6030000000	38
103.6330000000	48
103.6630000000	38
103.6930000000	41
103.7230000000	44
103.7530000000	31
103.7830000000	33
103.8130000000	33
103.8430000000	44
103.8730000000	47
103.9030000000	30
103.9330000000	43
103.9630000000	48
103.9930000000	38
104.0230000000	40
104.0530000000	32
104.0830000000	32
104.1130000000	36
104.1430000000	45
104.1730000000	35
104.2030000000	43
104.2330000000	42
104.2630000000	49
104.2930000000	39
104.3230000000	46
104.3530000000	41
104.3830000000	39
104.4130000000	45
104.4430000000	40
104.4730000000	49
104.5030000000	40
104.5330000000	39
104.5630000000	43
104.5930000000	39
104.6230000000	32
104.6530000000	44
104.6830000000	45
104.7130000000	38
104.7430000000	37
104.7730000000	30
104.8030000000	41
104.8330000000	31
104.8630000000	38
104.8930000000	40
104.9230000000	44
104.9530000000	42
104.9830000000	43
105.0130000000	37
105.0430000000	42
105.0730000000	47
105.1030000000	40
105.1330000000	37
105.1630000000	38
105.1930000000	36
105.2230000000	38
105.2530000000	42
105.2830000000	23
105.3130000000	39
105.3430000000	38
105.3730000000	28
105.4030000000	37
105.4330000000	35
105.4630000000	53
105.4930000000	38
105.5230000000	32
105.5530000000	29
105.5830000000	38
105.6130000000	38
105.6430000000	34
105.6730000000	35
105.7030000000	38
105.7330000000	53
105.7630000000	34
105.7930000000	32
105.8230000000	35
105.8530000000	30
105.8830000000	47
105.9130000000	35
105.9430000000	24
105.9730000000	44
106.0030000000	32
106.0330000000	39
106.0630000000	30
106.0930000000	36
106.1230000000	46
106.1530000000	41
106.1830000000	47
106.2130000000	32
106.2430000000	36
106.2730000000	30
106.3030000000	27
106.3330000000	25
106.3630000000	25
106.3930000000	50
106.4230000000	39
106.4530000000	32
106.4830000000	40
106.5130000000	37
106.5430000000	43
106.5730000000	47
106.6030000000	32
106.6330000000	38
106.6630000000	44
106.6930000000	34
106.7230000000	41
106.7530000000	56
106.7830000000	38
106.8130000000	37
106.8430000000	33
106.8730000000	39
106.9030000000	35
106.9330000000	37
106.9630000000	44
106.9930000000	29
107.0230000000	32
107.0530000000	41
107.0830000000	41
107.1130000000	35
107.1430000000	35
107.1730000000	36
107.2030000000	34
107.2330000000	36
107.2630000000	38
107.2930000000	25
107.3230000000	35
107.3530000000	36
107.3830000000	30
107.4130000000	34
107.4430000000	35
107.4730000000	34
107.5030000000	32
107.5330000000	34
107.5630000000	39
107.5930000000	46
107.6230000000	43
107.6530000000	28
107.6830000000	34
107.7130000000	31
107.7430000000	32
107.7730000000	38
107.8030000000	33
107.8330000000	37
107.8630000000	42
107.8930000000	46
107.9230000000	35
107.9530000000	21
107.9830000000	37
108.0130000000	33
108.0430000000	43
108.0730000000	34
108.1030000000	34
108.1330000000	34
108.1630000000	37
108.1930000000	23
108.2230000000	35
108.2530000000	35
108.2830000000	43
108.3130000000	42
108.3430000000	39
108.3730000000	42
108.4030000000	36
108.4330000000	52
108.4630000000	52
108.4930000000	33
108.5230000000	28
108.5530000000	38
108.5830000000	32
108.6130000000	42
108.6430000000	41
108.6730000000	31
108.7030000000	52
108.7330000000	40
108.7630000000	47
108.7930000000	41
108.8230000000	29
108.8530000000	42
108.8830000000	34
108.9130000000	38
108.9430000000	21
108.9730000000	40
109.0030000000	33
109.0330000000	34
109.0630000000	27
109.0930000000	32
109.1230000000	41
109.1530000000	34
109.1830000000	45
109.2130000000	26
109.2430000000	35
109.2730000000	29
109.3030000000	38
109.3330000000	41
109.3630000000	38
109.3930000000	36
109.4230000000	42
109.4530000000	48
109.4830000000	47
109.5130000000	41
109.5430000000	46
109.5730000000	40
109.6030000000	29
109.6330000000	31
109.6630000000	49
109.6930000000	39
109.7230000000	35
109.7530000000	34
109.7830000000	43
109.8130000000	42
109.8430000000	53
109.8730000000	45
109.9030000000	43
109.9330000000	39
109.9630000000	39
109.9930000000	38
110.0230000000	27
110.0530000000	36
110.0830000000	42
110.1130000000	39
110.1430000000	35
110.1730000000	35
110.2030000000	36
110.2330000000	33
110.2630000000	34
110.2930000000	42
110.3230000000	38
110.3530000000	34
110.3830000000	37
110.4130000000	32
110.4430000000	33
110.4730000000	37
110.5030000000	39
110.5330000000	48
110.5630000000	30
110.5930000000	32
110.6230000000	28
110.6530000000	31
110.6830000000	44
110.7130000000	33
110.7430000000	41
110.7730000000	31
110.8030000000	32
110.8330000000	36
110.8630000000	36
110.8930000000	35
110.9230000000	37
110.9530000000	42
110.9830000000	38
111.0130000000	38
111.0430000000	40
111.0730000000	31
111.1030000000	28
111.1330000000	33
111.1630000000	40
111.1930000000	33
111.2230000000	26
111.2530000000	41
111.2830000000	44
111.3130000000	45
111.3430000000	37
111.3730000000	40
111.4030000000	48
111.4330000000	33
111.4630000000	41
111.4930000000	50
111.5230000000	36
111.5530000000	39
111.5830000000	37
111.6130000000	44
111.6430000000	23
111.6730000000	47
111.7030000000	36
111.7330000000	40
111.7630000000	44
111.7930000000	44
111.8230000000	43
111.8530000000	34
111.8830000000	30
111.9130000000	36
111.9430000000	33
111.9730000000	34
112.0030000000	32
112.0330000000	32
112.0630000000	40
112.0930000000	36
112.1230000000	35
112.1530000000	33
112.1830000000	44
112.2130000000	33
112.2430000000	39
112.2730000000	46
112.3030000000	48
112.3330000000	41
112.3630000000	41
112.3930000000	32
112.4230000000	32
112.4530000000	36
112.4830000000	34
112.5130000000	39
112.5430000000	38
112.5730000000	42
112.6030000000	49
112.6330000000	42
112.6630000000	39
112.6930000000	37
112.7230000000	37
112.7530000000	40
112.7830000000	38
112.8130000000	40
112.8430000000	50
112.8730000000	37
112.9030000000	33
112.9330000000	30
112.9630000000	31
112.9930000000	30
113.0230000000	40
113.0530000000	40
113.0830000000	40
113.1130000000	24
113.1430000000	37
113.1730000000	32
113.2030000000	35
113.2330000000	53
113.2630000000	35
113.2930000000	36
113.3230000000	38
113.3530000000	42
113.3830000000	35
113.4130000000	34
113.4430000000	42
113.4730000000	37
113.5030000000	28
113.5330000000	33
113.5630000000	35
113.5930000000	39
113.6230000000	42
113.6530000000	31
113.6830000000	56
113.7130000000	39
113.7430000000	34
113.7730000000	29
113.8030000000	26
113.8330000000	46
113.8630000000	47
113.8930000000	30
113.9230000000	34
113.9530000000	45
113.9830000000	33
114.0130000000	31
114.0430000000	40
114.0730000000	39
114.1030000000	35
114.1330000000	34
114.1630000000	42
114.1930000000	36
114.2230000000	32
114.2530000000	40
114.2830000000	44
114.3130000000	33
114.3430000000	34
114.3730000000	41
114.4030000000	39
114.4330000000	47
114.4630000000	1
114.4930000000	1
114.5230000000	1
114.5530000000	1
114.5830000000	1
