0.3130000000	1
0.3430000000	1
0.3730000000	1
0.4030000000	1
0.4330000000	2
0.4630000000	1
0.4930000000	1
0.5230000000	1
0.5530000000	1
0.5830000000	1
0.6130000000	1
0.6430000000	1
0.6730000000	1
0.7030000000	1
0.7330000000	1
0.7630000000	1
0.7930000000	1
0.8230000000	1
0.8530000000	1
0.8830000000	1
0.9130000000	1
0.9430000000	1
0.9730000000	1
1.0030000000	1
1.0330000000	1
1.0630000000	1
1.0930000000	2
1.1230000000	2
1.1530000000	1
1.1830000000	2
1.2130000000	1
1.2430000000	1
1.2730000000	1
1.3030000000	1
1.3330000000	1
1.3630000000	1
1.3930000000	1
1.4230000000	1
1.4530000000	1
1.4830000000	1
1.5130000000	1
1.5430000000	1
1.5730000000	1
1.6030000000	2
1.6330000000	1
1.6630000000	1
1.6930000000	1
1.7230000000	2
1.7530000000	1
1.7830000000	2
1.8130000000	1
1.8430000000	1
1.8730000000	2
1.9030000000	2
1.9330000000	3
1.9630000000	2
1.9930000000	1
2.0230000000	1
2.0530000000	1
2.0830000000	2
2.1130000000	1
2.1430000000	1
2.1730000000	1
2.2030000000	1
2.2330000000	1
2.2630000000	1
2.2930000000	1
2.3230000000	1
2.3530000000	1
2.3830000000	1
2.4130000000	1
2.4430000000	1
2.4730000000	2
2.5030000000	3
2.5330000000	1
2.5630000000	2
2.5930000000	2
2.6230000000	1
2.6530000000	1
2.6830000000	1
2.7130000000	1
2.7430000000	1
2.7730000000	2
2.8030000000	1
2.8330000000	2
2.8630000000	1
2.8930000000	2
2.9230000000	1
2.9530000000	2
2.9830000000	3
3.0130000000	2
3.0430000000	1
3.0730000000	2
3.1030000000	2
3.1330000000	2
3.1630000000	1
3.1930000000	3
3.2230000000	2
3.2530000000	2
3.2830000000	1
3.3130000000	1
3.3430000000	1
3.3730000000	1
3.4030000000	4
3.4330000000	3
3.4630000000	1
3.4930000000	4
3.5230000000	3
3.5530000000	2
3.5830000000	1
3.6130000000	1
3.6430000000	1
3.6730000000	1
3.7030000000	3
3.7330000000	1
3.7630000000	2
3.7930000000	4
3.8230000000	2
3.8530000000	1
3.8830000000	3
3.9130000000	5
3.9430000000	2
3.9730000000	4
4.0030000000	2
4.0330000000	3
4.0630000000	3
4.0930000000	2
4.1230000000	2
4.1530000000	5
4.1830000000	1
4.2130000000	4
4.2430000000	2
4.2730000000	6
4.3030000000	3
4.3330000000	3
4.3630000000	6
4.3930000000	6
4.4230000000	7
4.4530000000	12
4.4830000000	10
4.5130000000	23
4.5430000000	38
4.5730000000	56
4.6030000000	88
4.6330000000	111
4.6630000000	121
4.6930000000	140
4.7230000000	130
4.7530000000	153
4.7830000000	139
4.8130000000	152
4.8430000000	155
4.8730000000	135
4.9030000000	140
4.9330000000	162
4.9630000000	149
4.9930000000	155
5.0230000000	159
5.0530000000	148
5.0830000000	152
5.1130000000	158
5.1430000000	150
5.1730000000	145
5.2030000000	154
5.2330000000	161
5.2630000000	136
5.2930000000	146
5.3230000000	131
5.3530000000	154
5.3830000000	156
5.4130000000	159
5.4430000000	157
5.4730000000	155
5.5030000000	142
5.5330000000	137
5.5630000000	157
5.5930000000	176
5.6230000000	142
5.6530000000	145
5.6830000000	146
5.7130000000	163
5.7430000000	151
5.7730000000	155
5.8030000000	161
5.8330000000	147
5.8630000000	174
5.8930000000	127
5.9230000000	159
5.9530000000	156
5.9830000000	166
6.0130000000	156
6.0430000000	155
6.0730000000	151
6.1030000000	135
6.1330000000	166
6.1630000000	176
6.1930000000	156
6.2230000000	152
6.2530000000	163
6.2830000000	151
6.3130000000	165
6.3430000000	166
6.3730000000	160
6.4030000000	144
6.4330000000	156
6.4630000000	157
6.4930000000	161
6.5230000000	151
6.5530000000	143
6.5830000000	156
6.6130000000	143
6.6430000000	174
6.6730000000	171
6.7030000000	157
6.7330000000	156
6.7630000000	147
6.7930000000	142
6.8230000000	155
6.8530000000	165
6.8830000000	146
6.9130000000	150
6.9430000000	171
6.9730000000	164
7.0030000000	161
7.0330000000	162
7.0630000000	151
7.0930000000	161
7.1230000000	177
7.1530000000	155
7.1830000000	137
7.2130000000	179
7.2430000000	162
7.2730000000	153
7.3030000000	156
7.3330000000	152
7.3630000000	160
7.3930000000	158
7.4230000000	153
7.4530000000	157
7.4830000000	163
7.5130000000	155
7.5430000000	153
7.5730000000	154
7.6030000000	152
7.6330000000	150
7.6630000000	157
7.6930000000	151
7.7230000000	147
7.7530000000	158
7.7830000000	166
7.8130000000	170
7.8430000000	163
7.8730000000	152
7.9030000000	158
7.9330000000	154
7.9630000000	162
7.9930000000	183
8.0230000000	165
8.0530000000	160
8.0830000000	150
8.1130000000	168
8.1430000000	146
8.1730000000	168
8.2030000000	167
8.2330000000	159
8.2630000000	160
8.2930000000	146
8.3230000000	168
8.3530000000	133
8.3830000000	139
8.4130000000	157
8.4430000000	180
8.4730000000	177
8.5030000000	178
8.5330000000	163
8.5630000000	157
8.5930000000	159
8.6230000000	173
8.6530000000	145
8.6830000000	152
8.7130000000	164
8.7430000000	158
8.7730000000	154
8.8030000000	167
8.8330000000	148
8.8630000000	160
8.8930000000	159
8.9230000000	151
8.9530000000	140
8.9830000000	163
9.0130000000	170
9.0430000000	174
9.0730000000	140
9.1030000000	157
9.1330000000	162
9.1630000000	165
9.1930000000	168
9.2230000000	172
9.2530000000	156
9.2830000000	146
9.3130000000	150
9.3430000000	139
9.3730000000	181
9.4030000000	167
9.4330000000	160
9.4630000000	176
9.4930000000	171
9.5230000000	155
9.5530000000	166
9.5830000000	157
9.6130000000	187
9.6430000000	156
9.6730000000	155
9.7030000000	146
9.7330000000	145
9.7630000000	176
9.7930000000	163
9.8230000000	148
9.8530000000	163
9.8830000000	162
9.9130000000	177
9.9430000000	170
9.9730000000	156
10.0030000000	179
10.0330000000	177
10.0630000000	178
10.0930000000	161
10.1230000000	153
10.1530000000	150
10.1830000000	186
10.2130000000	173
10.2430000000	161
10.2730000000	142
10.3030000000	163
10.3330000000	168
10.3630000000	177
10.3930000000	157
10.4230000000	182
10.4530000000	172
10.4830000000	181
10.5130000000	156
10.5430000000	157
10.5730000000	166
10.6030000000	153
10.6330000000	184
10.6630000000	172
10.6930000000	185
10.7230000000	157
10.7530000000	135
10.7830000000	197
10.8130000000	173
10.8430000000	157
10.8730000000	172
10.9030000000	160
10.9330000000	171
10.9630000000	178
10.9930000000	164
11.0230000000	171
11.0530000000	168
11.0830000000	177
11.1130000000	157
11.1430000000	149
11.1730000000	176
11.2030000000	153
11.2330000000	170
11.2630000000	171
11.2930000000	140
11.3230000000	181
11.3530000000	165
11.3830000000	159
11.4130000000	140
11.4430000000	152
11.4730000000	168
11.5030000000	168
11.5330000000	155
11.5630000000	166
11.5930000000	164
11.6230000000	147
11.6530000000	170
11.6830000000	170
11.7130000000	173
11.7430000000	177
11.7730000000	167
11.8030000000	148
11.8330000000	155
11.8630000000	165
11.8930000000	177
11.9230000000	162
11.9530000000	154
11.9830000000	185
12.0130000000	169
12.0430000000	169
12.0730000000	155
12.1030000000	146
12.1330000000	173
12.1630000000	152
12.1930000000	149
12.2230000000	176
12.2530000000	170
12.2830000000	172
12.3130000000	150
12.3430000000	166
12.3730000000	151
12.4030000000	166
12.4330000000	173
12.4630000000	174
12.4930000000	166
12.5230000000	171
12.5530000000	153
12.5830000000	161
12.6130000000	159
12.6430000000	166
12.6730000000	155
12.7030000000	164
12.7330000000	179
12.7630000000	168
12.7930000000	169
12.8230000000	166
12.8530000000	170
12.8830000000	178
12.9130000000	185
12.9430000000	186
12.9730000000	165
13.0030000000	163
13.0330000000	165
13.0630000000	157
13.0930000000	170
13.1230000000	181
13.1530000000	162
13.1830000000	147
13.2130000000	142
13.2430000000	162
13.2730000000	169
13.3030000000	131
13.3330000000	167
13.3630000000	176
13.3930000000	159
13.4230000000	174
13.4530000000	168
13.4830000000	180
13.5130000000	184
13.5430000000	164
13.5730000000	200
13.6030000000	177
13.6330000000	159
13.6630000000	175
13.6930000000	156
13.7230000000	173
13.7530000000	156
13.7830000000	145
13.8130000000	154
13.8430000000	154
13.8730000000	154
13.9030000000	141
13.9330000000	163
13.9630000000	169
13.9930000000	179
14.0230000000	155
14.0530000000	154
14.0830000000	178
14.1130000000	142
14.1430000000	163
14.1730000000	194
14.2030000000	165
14.2330000000	169
14.2630000000	148
14.2930000000	182
14.3230000000	178
14.3530000000	172
14.3830000000	157
14.4130000000	153
14.4430000000	152
14.4730000000	148
14.5030000000	164
14.5330000000	161
14.5630000000	167
14.5930000000	178
14.6230000000	169
14.6530000000	163
14.6830000000	168
14.7130000000	154
14.7430000000	154
14.7730000000	174
14.8030000000	161
14.8330000000	182
14.8630000000	199
14.8930000000	183
14.9230000000	173
14.9530000000	179
14.9830000000	190
15.0130000000	179
15.0430000000	178
15.0730000000	183
15.1030000000	167
15.1330000000	200
15.1630000000	160
15.1930000000	186
15.2230000000	169
15.2530000000	157
15.2830000000	177
15.3130000000	175
15.3430000000	167
15.3730000000	171
15.4030000000	176
15.4330000000	153
15.4630000000	180
15.4930000000	159
15.5230000000	172
15.5530000000	168
15.5830000000	184
15.6130000000	177
15.6430000000	181
15.6730000000	175
15.7030000000	180
15.7330000000	177
15.7630000000	156
15.7930000000	169
15.8230000000	165
15.8530000000	162
15.8830000000	183
15.9130000000	159
15.9430000000	158
15.9730000000	187
16.0030000000	160
16.0330000000	168
16.0630000000	181
16.0930000000	174
16.1230000000	142
16.1530000000	170
16.1830000000	177
16.2130000000	171
16.2430000000	158
16.2730000000	161
16.3030000000	191
16.3330000000	170
16.3630000000	151
16.3930000000	184
16.4230000000	146
16.4530000000	158
16.4830000000	170
16.5130000000	161
16.5430000000	174
16.5730000000	165
16.6030000000	188
16.6330000000	216
16.6630000000	179
16.6930000000	166
16.7230000000	174
16.7530000000	170
16.7830000000	163
16.8130000000	175
16.8430000000	178
16.8730000000	174
16.9030000000	166
16.9330000000	198
16.9630000000	168
16.9930000000	168
17.0230000000	193
17.0530000000	190
17.0830000000	160
17.1130000000	166
17.1430000000	184
17.1730000000	167
17.2030000000	158
17.2330000000	181
17.2630000000	172
17.2930000000	178
17.3230000000	188
17.3530000000	174
17.3830000000	170
17.4130000000	168
17.4430000000	170
17.4730000000	182
17.5030000000	184
17.5330000000	174
17.5630000000	189
17.5930000000	186
17.6230000000	176
17.6530000000	192
17.6830000000	183
17.7130000000	171
17.7430000000	182
17.7730000000	177
17.8030000000	164
17.8330000000	178
17.8630000000	186
17.8930000000	177
17.9230000000	170
17.9530000000	165
17.9830000000	173
18.0130000000	179
18.0430000000	169
18.0730000000	173
18.1030000000	189
18.1330000000	169
18.1630000000	193
18.1930000000	151
18.2230000000	160
18.2530000000	170
18.2830000000	196
18.3130000000	190
18.3430000000	167
18.3730000000	187
18.4030000000	173
18.4330000000	178
18.4630000000	182
18.4930000000	160
18.5230000000	185
18.5530000000	177
18.5830000000	176
18.6130000000	173
18.6430000000	170
18.6730000000	193
18.7030000000	170
18.7330000000	170
18.7630000000	194
18.7930000000	176
18.8230000000	175
18.8530000000	164
18.8830000000	191
18.9130000000	171
18.9430000000	196
18.9730000000	181
19.0030000000	181
19.0330000000	178
19.0630000000	178
19.0930000000	181
19.1230000000	190
19.1530000000	178
19.1830000000	188
19.2130000000	175
19.2430000000	192
19.2730000000	186
19.3030000000	202
19.3330000000	192
19.3630000000	181
19.3930000000	189
19.4230000000	207
19.4530000000	172
19.4830000000	185
19.5130000000	184
19.5430000000	191
19.5730000000	166
19.6030000000	200
19.6330000000	205
19.6630000000	184
19.6930000000	197
19.7230000000	191
19.7530000000	174
19.7830000000	205
19.8130000000	210
19.8430000000	214
19.8730000000	189
19.9030000000	221
19.9330000000	211
19.9630000000	200
19.9930000000	182
20.0230000000	177
20.0530000000	213
20.0830000000	222
20.1130000000	206
20.1430000000	198
20.1730000000	214
20.2030000000	201
20.2330000000	212
20.2630000000	215
20.2930000000	206
20.3230000000	198
20.3530000000	191
20.3830000000	195
20.4130000000	190
20.4430000000	200
20.4730000000	198
20.5030000000	198
20.5330000000	236
20.5630000000	179
20.5930000000	227
20.6230000000	201
20.6530000000	211
20.6830000000	197
20.7130000000	233
20.7430000000	198
20.7730000000	217
20.8030000000	236
20.8330000000	214
20.8630000000	213
20.8930000000	229
20.9230000000	223
20.9530000000	216
20.9830000000	220
21.0130000000	216
21.0430000000	204
21.0730000000	218
21.1030000000	222
21.1330000000	238
21.1630000000	229
21.1930000000	219
21.2230000000	242
21.2530000000	240
21.2830000000	226
21.3130000000	235
21.3430000000	226
21.3730000000	253
21.4030000000	236
21.4330000000	229
21.4630000000	206
21.4930000000	242
21.5230000000	233
21.5530000000	212
21.5830000000	242
21.6130000000	241
21.6430000000	251
21.6730000000	258
21.7030000000	215
21.7330000000	251
21.7630000000	257
21.7930000000	228
21.8230000000	223
21.8530000000	265
21.8830000000	269
21.9130000000	258
21.9430000000	247
21.9730000000	255
22.0030000000	240
22.0330000000	225
22.0630000000	206
22.0930000000	237
22.1230000000	258
22.1530000000	272
22.1830000000	250
22.2130000000	241
22.2430000000	261
22.2730000000	280
22.3030000000	269
22.3330000000	250
22.3630000000	265
22.3930000000	259
22.4230000000	245
22.4530000000	267
22.4830000000	271
22.5130000000	251
22.5430000000	242
22.5730000000	245
22.6030000000	244
22.6330000000	257
22.6630000000	244
22.6930000000	241
22.7230000000	300
22.7530000000	248
22.7830000000	251
22.8130000000	241
22.8430000000	244
22.8730000000	301
22.9030000000	260
22.9330000000	233
22.9630000000	274
22.9930000000	241
23.0230000000	229
23.0530000000	250
23.0830000000	250
23.1130000000	244
23.1430000000	264
23.1730000000	246
23.2030000000	247
23.2330000000	235
23.2630000000	265
23.2930000000	268
23.3230000000	263
23.3530000000	266
23.3830000000	254
23.4130000000	237
23.4430000000	211
23.4730000000	247
23.5030000000	234
23.5330000000	228
23.5630000000	239
23.5930000000	258
23.6230000000	226
23.6530000000	278
23.6830000000	247
23.7130000000	246
23.7430000000	242
23.7730000000	243
23.8030000000	230
23.8330000000	260
23.8630000000	245
23.8930000000	243
23.9230000000	236
23.9530000000	220
23.9830000000	239
24.0130000000	244
24.0430000000	254
24.0730000000	243
24.1030000000	223
24.1330000000	243
24.1630000000	238
24.1930000000	247
24.2230000000	245
24.2530000000	242
24.2830000000	256
24.3130000000	232
24.3430000000	243
24.3730000000	257
24.4030000000	239
24.4330000000	254
24.4630000000	261
24.4930000000	245
24.5230000000	246
24.5530000000	255
24.5830000000	230
24.6130000000	272
24.6430000000	226
24.6730000000	264
24.7030000000	254
24.7330000000	239
24.7630000000	231
24.7930000000	226
24.8230000000	233
24.8530000000	237
24.8830000000	253
24.9130000000	178
24.9430000000	246
24.9730000000	231
25.0030000000	219
25.0330000000	261
25.0630000000	247
25.0930000000	250
25.1230000000	230
25.1530000000	228
25.1830000000	203
25.2130000000	228
25.2430000000	218
25.2730000000	226
25.3030000000	237
25.3330000000	184
25.3630000000	235
25.3930000000	228
25.4230000000	203
25.4530000000	224
25.4830000000	211
25.5130000000	227
25.5430000000	226
25.5730000000	241
25.6030000000	232
25.6330000000	222
25.6630000000	260
25.6930000000	234
25.7230000000	257
25.7530000000	234
25.7830000000	221
25.8130000000	224
25.8430000000	223
25.8730000000	226
25.9030000000	239
25.9330000000	230
25.9630000000	220
25.9930000000	230
26.0230000000	223
26.0530000000	231
26.0830000000	238
26.1130000000	244
26.1430000000	224
26.1730000000	230
26.2030000000	234
26.2330000000	227
26.2630000000	226
26.2930000000	225
26.3230000000	208
26.3530000000	225
26.3830000000	225
26.4130000000	226
26.4430000000	223
26.4730000000	230
26.5030000000	215
26.5330000000	210
26.5630000000	245
26.5930000000	229
26.6230000000	204
26.6530000000	204
26.6830000000	219
26.7130000000	233
26.7430000000	224
26.7730000000	220
26.8030000000	201
26.8330000000	220
26.8630000000	229
26.8930000000	198
26.9230000000	196
26.9530000000	218
26.9830000000	231
27.0130000000	217
27.0430000000	219
27.0730000000	231
27.1030000000	216
27.1330000000	212
27.1630000000	234
27.1930000000	249
27.2230000000	239
27.2530000000	229
27.2830000000	183
27.3130000000	218
27.3430000000	207
27.3730000000	189
27.4030000000	202
27.4330000000	220
27.4630000000	210
27.4930000000	214
27.5230000000	229
27.5530000000	230
27.5830000000	209
27.6130000000	207
27.6430000000	216
27.6730000000	209
27.7030000000	225
27.7330000000	177
27.7630000000	192
27.7930000000	202
27.8230000000	221
27.8530000000	235
27.8830000000	213
27.9130000000	214
27.9430000000	213
27.9730000000	233
28.0030000000	199
28.0330000000	225
28.0630000000	245
28.0930000000	237
28.1230000000	247
28.1530000000	212
28.1830000000	223
28.2130000000	234
28.2430000000	207
28.2730000000	232
28.3030000000	241
28.3330000000	217
28.3630000000	209
28.3930000000	217
28.4230000000	233
28.4530000000	215
28.4830000000	218
28.5130000000	216
28.5430000000	199
28.5730000000	239
28.6030000000	219
28.6330000000	193
28.6630000000	206
28.6930000000	211
28.7230000000	228
28.7530000000	208
28.7830000000	234
28.8130000000	235
28.8430000000	248
28.8730000000	206
28.9030000000	205
28.9330000000	217
28.9630000000	229
28.9930000000	235
29.0230000000	203
29.0530000000	210
29.0830000000	213
29.1130000000	209
29.1430000000	238
29.1730000000	208
29.2030000000	220
29.2330000000	190
29.2630000000	196
29.2930000000	223
29.3230000000	188
29.3530000000	204
29.3830000000	200
29.4130000000	190
29.4430000000	204
29.4730000000	197
29.5030000000	182
29.5330000000	184
29.5630000000	203
29.5930000000	198
29.6230000000	211
29.6530000000	232
29.6830000000	195
29.7130000000	191
29.7430000000	197
29.7730000000	208
29.8030000000	197
29.8330000000	201
29.8630000000	206
29.8930000000	206
29.9230000000	187
29.9530000000	210
29.9830000000	192
30.0130000000	198
30.0430000000	209
30.0730000000	210
30.1030000000	198
30.1330000000	197
30.1630000000	173
30.1930000000	207
30.2230000000	199
30.2530000000	189
30.2830000000	211
30.3130000000	205
30.3430000000	206
30.3730000000	177
30.4030000000	188
30.4330000000	201
30.4630000000	197
30.4930000000	194
30.5230000000	232
30.5530000000	196
30.5830000000	213
30.6130000000	176
30.6430000000	203
30.6730000000	231
30.7030000000	209
30.7330000000	210
30.7630000000	201
30.7930000000	179
30.8230000000	217
30.8530000000	224
30.8830000000	218
30.9130000000	175
30.9430000000	206
30.9730000000	209
31.0030000000	186
31.0330000000	212
31.0630000000	198
31.0930000000	208
31.1230000000	204
31.1530000000	217
31.1830000000	213
31.2130000000	226
31.2430000000	197
31.2730000000	205
31.3030000000	191
31.3330000000	213
31.3630000000	221
31.3930000000	198
31.4230000000	187
31.4530000000	243
31.4830000000	217
31.5130000000	191
31.5430000000	212
31.5730000000	210
31.6030000000	203
31.6330000000	203
31.6630000000	209
31.6930000000	182
31.7230000000	192
31.7530000000	184
31.7830000000	154
31.8130000000	176
31.8430000000	197
31.8730000000	175
31.9030000000	187
31.9330000000	189
31.9630000000	209
31.9930000000	184
32.0230000000	169
32.0530000000	211
32.0830000000	194
32.1130000000	191
32.1430000000	186
32.1730000000	190
32.2030000000	196
32.2330000000	197
32.2630000000	187
32.2930000000	197
32.3230000000	196
32.3530000000	179
32.3830000000	181
32.4130000000	190
32.4430000000	173
32.4730000000	181
32.5030000000	162
32.5330000000	164
32.5630000000	179
32.5930000000	180
32.6230000000	180
32.6530000000	189
32.6830000000	179
32.7130000000	181
32.7430000000	180
32.7730000000	173
32.8030000000	175
32.8330000000	179
32.8630000000	176
32.8930000000	190
32.9230000000	194
32.9530000000	172
32.9830000000	179
33.0130000000	176
33.0430000000	163
33.0730000000	164
33.1030000000	183
33.1330000000	165
33.1630000000	163
33.1930000000	172
33.2230000000	194
33.2530000000	162
33.2830000000	162
33.3130000000	179
33.3430000000	190
33.3730000000	178
33.4030000000	160
33.4330000000	166
33.4630000000	162
33.4930000000	155
33.5230000000	157
33.5530000000	150
33.5830000000	177
33.6130000000	165
33.6430000000	167
33.6730000000	156
33.7030000000	156
33.7330000000	184
33.7630000000	164
33.7930000000	165
33.8230000000	154
33.8530000000	177
33.8830000000	159
33.9130000000	143
33.9430000000	152
33.9730000000	155
34.0030000000	146
34.0330000000	142
34.0630000000	156
34.0930000000	142
34.1230000000	167
34.1530000000	157
34.1830000000	138
34.2130000000	148
34.2430000000	163
34.2730000000	166
34.3030000000	142
34.3330000000	140
34.3630000000	172
34.3930000000	170
34.4230000000	142
34.4530000000	149
34.4830000000	168
34.5130000000	149
34.5430000000	145
34.5730000000	148
34.6030000000	157
34.6330000000	135
34.6630000000	173
34.6930000000	161
34.7230000000	150
34.7530000000	143
34.7830000000	167
34.8130000000	164
34.8430000000	160
34.8730000000	145
34.9030000000	152
34.9330000000	174
34.9630000000	165
34.9930000000	146
35.0230000000	149
35.0530000000	148
35.0830000000	158
35.1130000000	148
35.1430000000	187
35.1730000000	159
35.2030000000	148
35.2330000000	143
35.2630000000	162
35.2930000000	154
35.3230000000	140
35.3530000000	159
35.3830000000	154
35.4130000000	135
35.4430000000	154
35.4730000000	138
35.5030000000	150
35.5330000000	158
35.5630000000	155
35.5930000000	145
35.6230000000	139
35.6530000000	138
35.6830000000	142
35.7130000000	147
35.7430000000	147
35.7730000000	138
35.8030000000	142
35.8330000000	135
35.8630000000	145
35.8930000000	157
35.9230000000	140
35.9530000000	132
35.9830000000	156
36.0130000000	119
36.0430000000	133
36.0730000000	133
36.1030000000	166
36.1330000000	142
36.1630000000	146
36.1930000000	136
36.2230000000	117
36.2530000000	131
36.2830000000	127
36.3130000000	132
36.3430000000	132
36.3730000000	137
36.4030000000	145
36.4330000000	117
36.4630000000	119
36.4930000000	136
36.5230000000	136
36.5530000000	122
36.5830000000	145
36.6130000000	149
36.6430000000	157
36.6730000000	139
36.7030000000	118
36.7330000000	130
36.7630000000	152
36.7930000000	163
36.8230000000	133
36.8530000000	123
36.8830000000	126
36.9130000000	136
36.9430000000	103
36.9730000000	128
37.0030000000	116
37.0330000000	138
37.0630000000	140
37.0930000000	141
37.1230000000	140
37.1530000000	115
37.1830000000	125
37.2130000000	147
37.2430000000	113
37.2730000000	115
37.3030000000	121
37.3330000000	120
37.3630000000	118
37.3930000000	108
37.4230000000	115
37.4530000000	118
37.4830000000	115
37.5130000000	117
37.5430000000	123
37.5730000000	122
37.6030000000	118
37.6330000000	130
37.6630000000	119
37.6930000000	98
37.7230000000	116
37.7530000000	128
37.7830000000	101
37.8130000000	105
37.8430000000	119
37.8730000000	107
37.9030000000	121
37.9330000000	123
37.9630000000	107
37.9930000000	118
38.0230000000	114
38.0530000000	106
38.0830000000	122
38.1130000000	119
38.1430000000	114
38.1730000000	118
38.2030000000	115
38.2330000000	105
38.2630000000	105
38.2930000000	112
38.3230000000	112
38.3530000000	124
38.3830000000	112
38.4130000000	111
38.4430000000	117
38.4730000000	124
38.5030000000	120
38.5330000000	103
38.5630000000	110
38.5930000000	105
38.6230000000	108
38.6530000000	114
38.6830000000	123
38.7130000000	117
38.7430000000	121
38.7730000000	117
38.8030000000	103
38.8330000000	114
38.8630000000	120
38.8930000000	113
38.9230000000	109
38.9530000000	105
38.9830000000	114
39.0130000000	118
39.0430000000	91
39.0730000000	125
39.1030000000	109
39.1330000000	94
39.1630000000	112
39.1930000000	108
39.2230000000	102
39.2530000000	92
39.2830000000	121
39.3130000000	134
39.3430000000	118
39.3730000000	123
39.4030000000	111
39.4330000000	116
39.4630000000	104
39.4930000000	107
39.5230000000	102
39.5530000000	114
39.5830000000	103
39.6130000000	107
39.6430000000	103
39.6730000000	108
39.7030000000	115
39.7330000000	101
39.7630000000	98
39.7930000000	89
39.8230000000	107
39.8530000000	96
39.8830000000	105
39.9130000000	103
39.9430000000	102
39.9730000000	116
40.0030000000	89
40.0330000000	109
40.0630000000	95
40.0930000000	94
40.1230000000	117
40.1530000000	97
40.1830000000	94
40.2130000000	105
40.2430000000	86
40.2730000000	90
40.3030000000	101
40.3330000000	90
40.3630000000	125
40.3930000000	92
40.4230000000	107
40.4530000000	91
40.4830000000	107
40.5130000000	107
40.5430000000	109
40.5730000000	108
40.6030000000	116
40.6330000000	93
40.6630000000	112
40.6930000000	103
40.7230000000	83
40.7530000000	106
40.7830000000	105
40.8130000000	105
40.8430000000	101
40.8730000000	94
40.9030000000	114
40.9330000000	108
40.9630000000	97
40.9930000000	99
41.0230000000	114
41.0530000000	100
41.0830000000	102
41.1130000000	115
41.1430000000	118
41.1730000000	111
41.2030000000	91
41.2330000000	92
41.2630000000	112
41.2930000000	95
41.3230000000	122
41.3530000000	88
41.3830000000	82
41.4130000000	105
41.4430000000	97
41.4730000000	103
41.5030000000	103
41.5330000000	109
41.5630000000	110
41.5930000000	90
41.6230000000	94
41.6530000000	97
41.6830000000	107
41.7130000000	120
41.7430000000	109
41.7730000000	106
41.8030000000	92
41.8330000000	80
41.8630000000	103
41.8930000000	94
41.9230000000	100
41.9530000000	107
41.9830000000	95
42.0130000000	98
42.0430000000	98
42.0730000000	95
42.1030000000	97
42.1330000000	97
42.1630000000	84
42.1930000000	91
42.2230000000	102
42.2530000000	102
42.2830000000	101
42.3130000000	101
42.3430000000	94
42.3730000000	82
42.4030000000	103
42.4330000000	95
42.4630000000	83
42.4930000000	94
42.5230000000	94
42.5530000000	103
42.5830000000	83
42.6130000000	72
42.6430000000	89
42.6730000000	89
42.7030000000	89
42.7330000000	96
42.7630000000	98
42.7930000000	78
42.8230000000	74
42.8530000000	98
42.8830000000	92
42.9130000000	86
42.9430000000	87
42.9730000000	76
43.0030000000	85
43.0330000000	94
43.0630000000	84
43.0930000000	92
43.1230000000	82
43.1530000000	92
43.1830000000	99
43.2130000000	89
43.2430000000	85
43.2730000000	79
43.3030000000	101
43.3330000000	85
43.3630000000	89
43.3930000000	73
43.4230000000	88
43.4530000000	87
43.4830000000	83
43.5130000000	99
43.5430000000	93
43.5730000000	76
43.6030000000	68
43.6330000000	92
43.6630000000	90
43.6930000000	71
43.7230000000	83
43.7530000000	86
43.7830000000	86
43.8130000000	97
43.8430000000	75
43.8730000000	90
43.9030000000	77
43.9330000000	91
43.9630000000	100
43.9930000000	92
44.0230000000	81
44.0530000000	82
44.0830000000	79
44.1130000000	104
44.1430000000	98
44.1730000000	93
44.2030000000	92
44.2330000000	97
44.2630000000	100
44.2930000000	75
44.3230000000	80
44.3530000000	82
44.3830000000	87
44.4130000000	71
44.4430000000	67
44.4730000000	96
44.5030000000	94
44.5330000000	85
44.5630000000	61
44.5930000000	62
44.6230000000	89
44.6530000000	92
44.6830000000	90
44.7130000000	83
44.7430000000	71
44.7730000000	78
44.8030000000	83
44.8330000000	78
44.8630000000	88
44.8930000000	79
44.9230000000	75
44.9530000000	84
44.9830000000	92
45.0130000000	87
45.0430000000	74
45.0730000000	74
45.1030000000	91
45.1330000000	88
45.1630000000	74
45.1930000000	81
45.2230000000	91
45.2530000000	84
45.2830000000	72
45.3130000000	86
45.3430000000	74
45.3730000000	85
45.4030000000	68
45.4330000000	78
45.4630000000	78
45.4930000000	80
45.5230000000	77
45.5530000000	70
45.5830000000	83
45.6130000000	82
45.6430000000	79
45.6730000000	86
45.7030000000	84
45.7330000000	81
45.7630000000	85
45.7930000000	85
45.8230000000	74
45.8530000000	73
45.8830000000	70
45.9130000000	82
45.9430000000	80
45.9730000000	79
46.0030000000	80
46.0330000000	94
46.0630000000	77
46.0930000000	70
46.1230000000	80
46.1530000000	69
46.1830000000	91
46.2130000000	88
46.2430000000	101
46.2730000000	79
46.3030000000	75
46.3330000000	70
46.3630000000	67
46.3930000000	74
46.4230000000	85
46.4530000000	101
46.4830000000	88
46.5130000000	71
46.5430000000	95
46.5730000000	76
46.6030000000	85
46.6330000000	64
46.6630000000	104
46.6930000000	88
46.7230000000	84
46.7530000000	87
46.7830000000	66
46.8130000000	76
46.8430000000	73
46.8730000000	98
46.9030000000	66
46.9330000000	66
46.9630000000	70
46.9930000000	79
47.0230000000	88
47.0530000000	79
47.0830000000	69
47.1130000000	62
47.1430000000	77
47.1730000000	78
47.2030000000	78
47.2330000000	59
47.2630000000	78
47.2930000000	70
47.3230000000	70
47.3530000000	69
47.3830000000	78
47.4130000000	83
47.4430000000	62
47.4730000000	80
47.5030000000	79
47.5330000000	76
47.5630000000	81
47.5930000000	72
47.6230000000	80
47.6530000000	84
47.6830000000	69
47.7130000000	68
47.7430000000	73
47.7730000000	83
47.8030000000	86
47.8330000000	81
47.8630000000	67
47.8930000000	73
47.9230000000	75
47.9530000000	70
47.9830000000	64
48.0130000000	74
48.0430000000	76
48.0730000000	75
48.1030000000	65
48.1330000000	62
48.1630000000	78
48.1930000000	96
48.2230000000	86
48.2530000000	58
48.2830000000	56
48.3130000000	79
48.3430000000	71
48.3730000000	77
48.4030000000	64
48.4330000000	67
48.4630000000	81
48.4930000000	76
48.5230000000	74
48.5530000000	84
48.5830000000	71
48.6130000000	70
48.6430000000	72
48.6730000000	71
48.7030000000	75
48.7330000000	73
48.7630000000	76
48.7930000000	66
48.8230000000	55
48.8530000000	67
48.8830000000	66
48.9130000000	60
48.9430000000	66
48.9730000000	67
49.0030000000	67
49.0330000000	67
49.0630000000	61
49.0930000000	70
49.1230000000	77
49.1530000000	57
49.1830000000	73
49.2130000000	65
49.2430000000	42
49.2730000000	51
49.3030000000	70
49.3330000000	70
49.3630000000	64
49.3930000000	68
49.4230000000	70
49.4530000000	67
49.4830000000	70
49.5130000000	73
49.5430000000	68
49.5730000000	77
49.6030000000	66
49.6330000000	55
49.6630000000	64
49.6930000000	74
49.7230000000	52
49.7530000000	61
49.7830000000	77
49.8130000000	62
49.8430000000	72
49.8730000000	66
49.9030000000	56
49.9330000000	64
49.9630000000	74
49.9930000000	54
50.0230000000	74
50.0530000000	60
50.0830000000	72
50.1130000000	58
50.1430000000	67
50.1730000000	68
50.2030000000	62
50.2330000000	64
50.2630000000	64
50.2930000000	66
50.3230000000	64
50.3530000000	65
50.3830000000	59
50.4130000000	77
50.4430000000	72
50.4730000000	71
50.5030000000	47
50.5330000000	60
50.5630000000	69
50.5930000000	74
50.6230000000	67
50.6530000000	61
50.6830000000	68
50.7130000000	72
50.7430000000	66
50.7730000000	65
50.8030000000	74
50.8330000000	62
50.8630000000	62
50.8930000000	67
50.9230000000	68
50.9530000000	66
50.9830000000	59
51.0130000000	60
51.0430000000	49
51.0730000000	51
51.1030000000	59
51.1330000000	52
51.1630000000	56
51.1930000000	56
51.2230000000	61
51.2530000000	57
51.2830000000	50
51.3130000000	52
51.3430000000	58
51.3730000000	56
51.4030000000	56
51.4330000000	49
51.4630000000	53
51.4930000000	71
51.5230000000	64
51.5530000000	61
51.5830000000	58
51.6130000000	59
51.6430000000	47
51.6730000000	69
51.7030000000	61
51.7330000000	54
51.7630000000	67
51.7930000000	66
51.8230000000	68
51.8530000000	52
51.8830000000	55
51.9130000000	54
51.9430000000	65
51.9730000000	58
52.0030000000	40
52.0330000000	55
52.0630000000	55
52.0930000000	55
52.1230000000	55
52.1530000000	58
52.1830000000	50
52.2130000000	53
52.2430000000	59
52.2730000000	48
52.3030000000	58
52.3330000000	57
52.3630000000	61
52.3930000000	48
52.4230000000	59
52.4530000000	54
52.4830000000	62
52.5130000000	56
52.5430000000	48
52.5730000000	69
52.6030000000	64
52.6330000000	66
52.6630000000	65
52.6930000000	68
52.7230000000	52
52.7530000000	52
52.7830000000	79
52.8130000000	57
52.8430000000	49
52.8730000000	62
52.9030000000	39
52.9330000000	52
52.9630000000	50
52.9930000000	49
53.0230000000	67
53.0530000000	57
53.0830000000	51
53.1130000000	48
53.1430000000	51
53.1730000000	68
53.2030000000	59
53.2330000000	69
53.2630000000	47
53.2930000000	61
53.3230000000	51
53.3530000000	53
53.3830000000	61
53.4130000000	42
53.4430000000	55
53.4730000000	54
53.5030000000	70
53.5330000000	54
53.5630000000	60
53.5930000000	59
53.6230000000	52
53.6530000000	52
53.6830000000	58
53.7130000000	58
53.7430000000	58
53.7730000000	60
53.8030000000	54
53.8330000000	56
53.8630000000	63
53.8930000000	58
53.9230000000	58
53.9530000000	52
53.9830000000	54
54.0130000000	59
54.0430000000	53
54.0730000000	50
54.1030000000	55
54.1330000000	56
54.1630000000	53
54.1930000000	55
54.2230000000	46
54.2530000000	42
54.2830000000	53
54.3130000000	48
54.3430000000	46
54.3730000000	51
54.4030000000	42
54.4330000000	62
54.4630000000	60
54.4930000000	58
54.5230000000	71
54.5530000000	53
54.5830000000	47
54.6130000000	50
54.6430000000	50
54.6730000000	51
54.7030000000	51
54.7330000000	54
54.7630000000	58
54.7930000000	46
54.8230000000	54
54.8530000000	62
54.8830000000	43
54.9130000000	33
54.9430000000	38
54.9730000000	57
55.0030000000	57
55.0330000000	50
55.0630000000	43
55.0930000000	56
55.1230000000	59
55.1530000000	61
55.1830000000	62
55.2130000000	51
55.2430000000	52
55.2730000000	53
55.3030000000	53
55.3330000000	42
55.3630000000	54
55.3930000000	42
55.4230000000	55
55.4530000000	58
55.4830000000	49
55.5130000000	52
55.5430000000	52
55.5730000000	44
55.6030000000	52
55.6330000000	56
55.6630000000	61
55.6930000000	48
55.7230000000	48
55.7530000000	45
55.7830000000	54
55.8130000000	40
55.8430000000	59
55.8730000000	41
55.9030000000	37
55.9330000000	49
55.9630000000	60
55.9930000000	49
56.0230000000	41
56.0530000000	56
56.0830000000	52
56.1130000000	53
56.1430000000	53
56.1730000000	51
56.2030000000	47
56.2330000000	43
56.2630000000	49
56.2930000000	57
56.3230000000	55
56.3530000000	56
56.3830000000	47
56.4130000000	51
56.4430000000	43
56.4730000000	60
56.5030000000	46
56.5330000000	40
56.5630000000	68
56.5930000000	45
56.6230000000	40
56.6530000000	49
56.6830000000	52
56.7130000000	50
56.7430000000	50
56.7730000000	45
56.8030000000	50
56.8330000000	57
56.8630000000	50
56.8930000000	57
56.9230000000	34
56.9530000000	42
56.9830000000	46
57.0130000000	44
57.0430000000	44
57.0730000000	41
57.1030000000	45
57.1330000000	52
57.1630000000	50
57.1930000000	42
57.2230000000	46
57.2530000000	47
57.2830000000	53
57.3130000000	51
57.3430000000	36
57.3730000000	31
57.4030000000	54
57.4330000000	51
57.4630000000	46
57.4930000000	50
57.5230000000	48
57.5530000000	51
57.5830000000	37
57.6130000000	40
57.6430000000	38
57.6730000000	40
57.7030000000	44
57.7330000000	43
57.7630000000	52
57.7930000000	49
57.8230000000	43
57.8530000000	57
57.8830000000	51
57.9130000000	44
57.9430000000	52
57.9730000000	44
58.0030000000	43
58.0330000000	46
58.0630000000	35
58.0930000000	44
58.1230000000	57
58.1530000000	48
58.1830000000	40
58.2130000000	53
58.2430000000	58
58.2730000000	46
58.3030000000	26
58.3330000000	52
58.3630000000	40
58.3930000000	41
58.4230000000	40
58.4530000000	45
58.4830000000	43
58.5130000000	54
58.5430000000	57
58.5730000000	49
58.6030000000	37
58.6330000000	48
58.6630000000	50
58.6930000000	42
58.7230000000	38
58.7530000000	40
58.7830000000	47
58.8130000000	34
58.8430000000	55
58.8730000000	47
58.9030000000	46
58.9330000000	46
58.9630000000	57
58.9930000000	45
59.0230000000	39
59.0530000000	43
59.0830000000	38
59.1130000000	45
59.1430000000	45
59.1730000000	42
59.2030000000	45
59.2330000000	41
59.2630000000	46
59.2930000000	47
59.3230000000	32
59.3530000000	41
59.3830000000	47
59.4130000000	40
59.4430000000	48
59.4730000000	47
59.5030000000	35
59.5330000000	48
59.5630000000	45
59.5930000000	48
59.6230000000	46
59.6530000000	38
59.6830000000	47
59.7130000000	52
59.7430000000	46
59.7730000000	41
59.8030000000	48
59.8330000000	52
59.8630000000	40
59.8930000000	37
59.9230000000	45
59.9530000000	48
59.9830000000	50
60.0130000000	45
60.0430000000	46
60.0730000000	40
60.1030000000	45
60.1330000000	46
60.1630000000	54
60.1930000000	45
60.2230000000	48
60.2530000000	39
60.2830000000	43
60.3130000000	40
60.3430000000	40
60.3730000000	36
60.4030000000	49
60.4330000000	45
60.4630000000	44
60.4930000000	50
60.5230000000	40
60.5530000000	29
60.5830000000	46
60.6130000000	48
60.6430000000	48
60.6730000000	46
60.7030000000	49
60.7330000000	51
60.7630000000	37
60.7930000000	39
60.8230000000	40
60.8530000000	46
60.8830000000	41
60.9130000000	47
60.9430000000	38
60.9730000000	55
61.0030000000	46
61.0330000000	38
61.0630000000	38
61.0930000000	42
61.1230000000	52
61.1530000000	48
61.1830000000	54
61.2130000000	57
61.2430000000	42
61.2730000000	41
61.3030000000	32
61.3330000000	46
61.3630000000	49
61.3930000000	43
61.4230000000	53
61.4530000000	41
61.4830000000	48
61.5130000000	49
61.5430000000	42
61.5730000000	33
61.6030000000	41
61.6330000000	52
61.6630000000	40
61.6930000000	35
61.7230000000	24
61.7530000000	45
61.7830000000	38
61.8130000000	33
61.8430000000	33
61.8730000000	31
61.9030000000	44
61.9330000000	55
61.9630000000	42
61.9930000000	34
62.0230000000	51
62.0530000000	40
62.0830000000	39
62.1130000000	47
62.1430000000	49
62.1730000000	40
62.2030000000	50
62.2330000000	41
62.2630000000	40
62.2930000000	42
62.3230000000	40
62.3530000000	42
62.3830000000	51
62.4130000000	49
62.4430000000	32
62.4730000000	44
62.5030000000	44
62.5330000000	32
62.5630000000	39
62.5930000000	33
62.6230000000	41
62.6530000000	46
62.6830000000	40
62.7130000000	32
62.7430000000	44
62.7730000000	38
62.8030000000	46
62.8330000000	44
62.8630000000	41
62.8930000000	48
62.9230000000	35
62.9530000000	50
62.9830000000	45
63.0130000000	40
63.0430000000	46
63.0730000000	43
63.1030000000	45
63.1330000000	44
63.1630000000	41
63.1930000000	45
63.2230000000	43
63.2530000000	41
63.2830000000	50
63.3130000000	50
63.3430000000	39
63.3730000000	31
63.4030000000	35
63.4330000000	52
63.4630000000	42
63.4930000000	36
63.5230000000	47
63.5530000000	43
63.5830000000	43
63.6130000000	43
63.6430000000	40
63.6730000000	40
63.7030000000	41
63.7330000000	44
63.7630000000	44
63.7930000000	44
63.8230000000	47
63.8530000000	37
63.8830000000	39
63.9130000000	50
63.9430000000	46
63.9730000000	49
64.0030000000	43
64.0330000000	51
64.0630000000	34
64.0930000000	51
64.1230000000	46
64.1530000000	39
64.1830000000	43
64.2130000000	40
64.2430000000	39
64.2730000000	35
64.3030000000	44
64.3330000000	42
64.3630000000	44
64.3930000000	47
64.4230000000	39
64.4530000000	41
64.4830000000	37
64.5130000000	39
64.5430000000	40
64.5730000000	41
64.6030000000	34
64.6330000000	46
64.6630000000	41
64.6930000000	46
64.7230000000	47
64.7530000000	38
64.7830000000	43
64.8130000000	47
64.8430000000	42
64.8730000000	33
64.9030000000	46
64.9330000000	24
64.9630000000	45
64.9930000000	44
65.0230000000	35
65.0530000000	43
65.0830000000	29
65.1130000000	29
65.1430000000	42
65.1730000000	44
65.2030000000	39
65.2330000000	37
65.2630000000	50
65.2930000000	31
65.3230000000	34
65.3530000000	41
65.3830000000	29
65.4130000000	36
65.4430000000	42
65.4730000000	30
65.5030000000	42
65.5330000000	36
65.5630000000	37
65.5930000000	41
65.6230000000	40
65.6530000000	39
65.6830000000	39
65.7130000000	37
65.7430000000	46
65.7730000000	42
65.8030000000	44
65.8330000000	39
65.8630000000	44
65.8930000000	38
65.9230000000	35
65.9530000000	42
65.9830000000	40
66.0130000000	49
66.0430000000	38
66.0730000000	38
66.1030000000	45
66.1330000000	46
66.1630000000	44
66.1930000000	47
66.2230000000	38
66.2530000000	38
66.2830000000	45
66.3130000000	45
66.3430000000	42
66.3730000000	42
66.4030000000	32
66.4330000000	40
66.4630000000	32
66.4930000000	37
66.5230000000	40
66.5530000000	41
66.5830000000	41
66.6130000000	39
66.6430000000	41
66.6730000000	42
66.7030000000	47
66.7330000000	40
66.7630000000	31
66.7930000000	42
66.8230000000	40
66.8530000000	43
66.8830000000	44
66.9130000000	35
66.9430000000	40
66.9730000000	30
67.0030000000	35
67.0330000000	36
67.0630000000	36
67.0930000000	48
67.1230000000	46
67.1530000000	44
67.1830000000	35
67.2130000000	29
67.2430000000	38
67.2730000000	27
67.3030000000	32
67.3330000000	38
67.3630000000	36
67.3930000000	38
67.4230000000	46
67.4530000000	41
67.4830000000	40
67.5130000000	39
67.5430000000	51
67.5730000000	57
67.6030000000	32
67.6330000000	44
67.6630000000	38
67.6930000000	44
67.7230000000	31
67.7530000000	43
67.7830000000	42
67.8130000000	40
67.8430000000	41
67.8730000000	38
67.9030000000	48
67.9330000000	39
67.9630000000	43
67.9930000000	35
68.0230000000	34
68.0530000000	38
68.0830000000	35
68.1130000000	48
68.1430000000	35
68.1730000000	40
68.2030000000	37
68.2330000000	33
68.2630000000	44
68.2930000000	47
68.3230000000	39
68.3530000000	36
68.3830000000	40
68.4130000000	38
68.4430000000	40
68.4730000000	45
68.5030000000	47
68.5330000000	36
68.5630000000	31
68.5930000000	40
68.6230000000	33
68.6530000000	42
68.6830000000	41
68.7130000000	46
68.7430000000	32
68.7730000000	35
68.8030000000	43
68.8330000000	31
68.8630000000	43
68.8930000000	31
68.9230000000	29
68.9530000000	42
68.9830000000	38
69.0130000000	52
69.0430000000	28
69.0730000000	35
69.1030000000	38
69.1330000000	31
69.1630000000	33
69.1930000000	31
69.2230000000	40
69.2530000000	32
69.2830000000	35
69.3130000000	39
69.3430000000	50
69.3730000000	32
69.4030000000	38
69.4330000000	40
69.4630000000	38
69.4930000000	46
69.5230000000	43
69.5530000000	45
69.5830000000	37
69.6130000000	35
69.6430000000	47
69.6730000000	40
69.7030000000	41
69.7330000000	39
69.7630000000	30
69.7930000000	40
69.8230000000	42
69.8530000000	37
69.8830000000	35
69.9130000000	34
69.9430000000	36
69.9730000000	37
70.0030000000	29
70.0330000000	45
70.0630000000	43
70.0930000000	42
70.1230000000	22
70.1530000000	32
70.1830000000	42
70.2130000000	42
70.2430000000	48
70.2730000000	26
70.3030000000	43
70.3330000000	27
70.3630000000	39
70.3930000000	34
70.4230000000	40
70.4530000000	39
70.4830000000	30
70.5130000000	41
70.5430000000	36
70.5730000000	21
70.6030000000	28
70.6330000000	39
70.6630000000	36
70.6930000000	42
70.7230000000	36
70.7530000000	38
70.7830000000	37
70.8130000000	42
70.8430000000	36
70.8730000000	42
70.9030000000	39
70.9330000000	40
70.9630000000	36
70.9930000000	42
71.0230000000	41
71.0530000000	40
71.0830000000	56
71.1130000000	43
71.1430000000	36
71.1730000000	47
71.2030000000	41
71.2330000000	42
71.2630000000	30
71.2930000000	26
71.3230000000	44
71.3530000000	37
71.3830000000	49
71.4130000000	40
71.4430000000	39
71.4730000000	29
71.5030000000	38
71.5330000000	39
71.5630000000	35
71.5930000000	38
71.6230000000	27
71.6530000000	37
71.6830000000	40
71.7130000000	44
71.7430000000	41
71.7730000000	43
71.8030000000	37
71.8330000000	31
71.8630000000	31
71.8930000000	29
71.9230000000	32
71.9530000000	37
71.9830000000	44
72.0130000000	41
72.0430000000	41
72.0730000000	29
72.1030000000	41
72.1330000000	39
72.1630000000	28
72.1930000000	28
72.2230000000	47
72.2530000000	33
72.2830000000	43
72.3130000000	46
72.3430000000	31
72.3730000000	35
72.4030000000	49
72.4330000000	35
72.4630000000	34
72.4930000000	35
72.5230000000	43
72.5530000000	42
72.5830000000	43
72.6130000000	34
72.6430000000	34
72.6730000000	38
72.7030000000	33
72.7330000000	34
72.7630000000	38
72.7930000000	32
72.8230000000	44
72.8530000000	46
72.8830000000	39
72.9130000000	37
72.9430000000	25
72.9730000000	34
73.0030000000	42
73.0330000000	44
73.0630000000	34
73.0930000000	38
73.1230000000	35
73.1530000000	30
73.1830000000	37
73.2130000000	41
73.2430000000	41
73.2730000000	45
73.3030000000	40
73.3330000000	41
73.3630000000	41
73.3930000000	42
73.4230000000	38
73.4530000000	38
73.4830000000	38
73.5130000000	27
73.5430000000	40
73.5730000000	35
73.6030000000	38
73.6330000000	40
73.6630000000	39
73.6930000000	37
73.7230000000	36
73.7530000000	46
73.7830000000	31
73.8130000000	42
73.8430000000	29
73.8730000000	29
73.9030000000	41
73.9330000000	39
73.9630000000	30
73.9930000000	36
74.0230000000	32
74.0530000000	30
74.0830000000	29
74.1130000000	35
74.1430000000	34
74.1730000000	33
74.2030000000	32
74.2330000000	32
74.2630000000	26
74.2930000000	33
74.3230000000	34
74.3530000000	43
74.3830000000	38
74.4130000000	42
74.4430000000	26
74.4730000000	31
74.5030000000	39
74.5330000000	36
74.5630000000	40
74.5930000000	40
74.6230000000	37
74.6530000000	36
74.6830000000	34
74.7130000000	33
74.7430000000	35
74.7730000000	34
74.8030000000	33
74.8330000000	41
74.8630000000	34
74.8930000000	43
74.9230000000	30
74.9530000000	50
74.9830000000	42
75.0130000000	39
75.0430000000	27
75.0730000000	41
75.1030000000	35
75.1330000000	38
75.1630000000	38
75.1930000000	35
75.2230000000	36
75.2530000000	34
75.2830000000	31
75.3130000000	32
75.3430000000	28
75.3730000000	37
75.4030000000	41
75.4330000000	34
75.4630000000	32
75.4930000000	31
75.5230000000	42
75.5530000000	32
75.5830000000	38
75.6130000000	38
75.6430000000	29
75.6730000000	32
75.7030000000	36
75.7330000000	48
75.7630000000	29
75.7930000000	41
75.8230000000	37
75.8530000000	38
75.8830000000	34
75.9130000000	35
75.9430000000	34
75.9730000000	37
76.0030000000	36
76.0330000000	39
76.0630000000	42
76.0930000000	36
76.1230000000	35
76.1530000000	46
76.1830000000	37
76.2130000000	25
76.2430000000	29
76.2730000000	40
76.3030000000	38
76.3330000000	29
76.3630000000	31
76.3930000000	23
76.4230000000	29
76.4530000000	46
76.4830000000	40
76.5130000000	30
76.5430000000	33
76.5730000000	46
76.6030000000	40
76.6330000000	35
76.6630000000	44
76.6930000000	34
76.7230000000	40
76.7530000000	36
76.7830000000	35
76.8130000000	31
76.8430000000	40
76.8730000000	42
76.9030000000	36
76.9330000000	32
76.9630000000	39
76.9930000000	37
77.0230000000	32
77.0530000000	41
77.0830000000	23
77.1130000000	35
77.1430000000	37
77.1730000000	42
77.2030000000	34
77.2330000000	32
77.2630000000	40
77.2930000000	32
77.3230000000	41
77.3530000000	39
77.3830000000	36
77.4130000000	41
77.4430000000	34
77.4730000000	36
77.5030000000	55
77.5330000000	37
77.5630000000	26
77.5930000000	45
77.6230000000	39
77.6530000000	39
77.6830000000	36
77.7130000000	39
77.7430000000	28
77.7730000000	33
77.8030000000	36
77.8330000000	45
77.8630000000	47
77.8930000000	42
77.9230000000	44
77.9530000000	34
77.9830000000	33
78.0130000000	36
78.0430000000	26
78.0730000000	32
78.1030000000	25
78.1330000000	43
78.1630000000	32
78.1930000000	37
78.2230000000	35
78.2530000000	40
78.2830000000	43
78.3130000000	31
78.3430000000	35
78.3730000000	34
78.4030000000	41
78.4330000000	37
78.4630000000	38
78.4930000000	20
78.5230000000	31
78.5530000000	40
78.5830000000	33
78.6130000000	32
78.6430000000	33
78.6730000000	35
78.7030000000	50
78.7330000000	39
78.7630000000	43
78.7930000000	32
78.8230000000	39
78.8530000000	43
78.8830000000	37
78.9130000000	36
78.9430000000	38
78.9730000000	48
79.0030000000	38
79.0330000000	38
79.0630000000	37
79.0930000000	31
79.1230000000	32
79.1530000000	43
79.1830000000	39
79.2130000000	30
79.2430000000	32
79.2730000000	34
79.3030000000	38
79.3330000000	45
79.3630000000	27
79.3930000000	26
79.4230000000	40
79.4530000000	34
79.4830000000	34
79.5130000000	35
79.5430000000	31
79.5730000000	31
79.6030000000	40
79.6330000000	36
79.6630000000	50
79.6930000000	36
79.7230000000	32
79.7530000000	30
79.7830000000	27
79.8130000000	32
79.8430000000	25
79.8730000000	37
79.9030000000	33
79.9330000000	30
79.9630000000	31
79.9930000000	30
80.0230000000	39
80.0530000000	39
80.0830000000	25
80.1130000000	41
80.1430000000	31
80.1730000000	25
80.2030000000	36
80.2330000000	39
80.2630000000	39
80.2930000000	46
80.3230000000	37
80.3530000000	30
80.3830000000	35
80.4130000000	43
80.4430000000	41
80.4730000000	37
80.5030000000	35
80.5330000000	58
80.5630000000	37
80.5930000000	35
80.6230000000	34
80.6530000000	37
80.6830000000	29
80.7130000000	39
80.7430000000	35
80.7730000000	38
80.8030000000	40
80.8330000000	32
80.8630000000	36
80.8930000000	39
80.9230000000	35
80.9530000000	38
80.9830000000	30
81.0130000000	34
81.0430000000	31
81.0730000000	36
81.1030000000	35
81.1330000000	36
81.1630000000	39
81.1930000000	41
81.2230000000	29
81.2530000000	38
81.2830000000	32
81.3130000000	32
81.3430000000	37
81.3730000000	45
81.4030000000	35
81.4330000000	42
81.4630000000	33
81.4930000000	38
81.5230000000	28
81.5530000000	36
81.5830000000	38
81.6130000000	43
81.6430000000	27
81.6730000000	36
81.7030000000	23
81.7330000000	35
81.7630000000	39
81.7930000000	36
81.8230000000	31
81.8530000000	29
81.8830000000	36
81.9130000000	38
81.9430000000	40
81.9730000000	36
82.0030000000	26
82.0330000000	30
82.0630000000	37
82.0930000000	34
82.1230000000	25
82.1530000000	37
82.1830000000	29
82.2130000000	41
82.2430000000	41
82.2730000000	32
82.3030000000	38
82.3330000000	41
82.3630000000	41
82.3930000000	32
82.4230000000	35
82.4530000000	39
82.4830000000	44
82.5130000000	36
82.5430000000	42
82.5730000000	44
82.6030000000	38
82.6330000000	42
82.6630000000	37
82.6930000000	32
82.7230000000	32
82.7530000000	23
82.7830000000	41
82.8130000000	39
82.8430000000	26
82.8730000000	42
82.9030000000	30
82.9330000000	22
82.9630000000	32
82.9930000000	27
83.0230000000	30
83.0530000000	35
83.0830000000	38
83.1130000000	30
83.1430000000	28
83.1730000000	35
83.2030000000	40
83.2330000000	39
83.2630000000	36
83.2930000000	36
83.3230000000	32
83.3530000000	36
83.3830000000	28
83.4130000000	36
83.4430000000	53
83.4730000000	25
83.5030000000	36
83.5330000000	39
83.5630000000	32
83.5930000000	36
83.6230000000	31
83.6530000000	36
83.6830000000	38
83.7130000000	30
83.7430000000	40
83.7730000000	39
83.8030000000	27
83.8330000000	38
83.8630000000	44
83.8930000000	36
83.9230000000	33
83.9530000000	35
83.9830000000	32
84.0130000000	35
84.0430000000	33
84.0730000000	37
84.1030000000	41
84.1330000000	37
84.1630000000	48
84.1930000000	50
84.2230000000	27
84.2530000000	44
84.2830000000	33
84.3130000000	26
84.3430000000	34
84.3730000000	41
84.4030000000	33
84.4330000000	40
84.4630000000	37
84.4930000000	40
84.5230000000	31
84.5530000000	33
84.5830000000	37
84.6130000000	38
84.6430000000	30
84.6730000000	38
84.7030000000	54
84.7330000000	36
84.7630000000	40
84.7930000000	38
84.8230000000	31
84.8530000000	40
84.8830000000	27
84.9130000000	28
84.9430000000	36
84.9730000000	42
85.0030000000	39
85.0330000000	33
85.0630000000	39
85.0930000000	37
85.1230000000	29
85.1530000000	29
85.1830000000	35
85.2130000000	32
85.2430000000	36
85.2730000000	34
85.3030000000	31
85.3330000000	41
85.3630000000	40
85.3930000000	40
85.4230000000	36
85.4530000000	38
85.4830000000	33
85.5130000000	38
85.5430000000	29
85.5730000000	29
85.6030000000	27
85.6330000000	38
85.6630000000	30
85.6930000000	39
85.7230000000	27
85.7530000000	35
85.7830000000	27
85.8130000000	41
85.8430000000	42
85.8730000000	30
85.9030000000	35
85.9330000000	35
85.9630000000	25
85.9930000000	33
86.0230000000	31
86.0530000000	31
86.0830000000	25
86.1130000000	38
86.1430000000	32
86.1730000000	43
86.2030000000	41
86.2330000000	40
86.2630000000	38
86.2930000000	37
86.3230000000	30
86.3530000000	37
86.3830000000	26
86.4130000000	35
86.4430000000	33
86.4730000000	33
86.5030000000	37
86.5330000000	44
86.5630000000	36
86.5930000000	43
86.6230000000	39
86.6530000000	38
86.6830000000	33
86.7130000000	34
86.7430000000	37
86.7730000000	35
86.8030000000	32
86.8330000000	38
86.8630000000	32
86.8930000000	34
86.9230000000	26
86.9530000000	27
86.9830000000	38
87.0130000000	32
87.0430000000	31
87.0730000000	34
87.1030000000	31
87.1330000000	30
87.1630000000	28
87.1930000000	34
87.2230000000	35
87.2530000000	21
87.2830000000	22
87.3130000000	36
87.3430000000	31
87.3730000000	34
87.4030000000	31
87.4330000000	21
87.4630000000	25
87.4930000000	32
87.5230000000	42
87.5530000000	30
87.5830000000	33
87.6130000000	25
87.6430000000	30
87.6730000000	26
87.7030000000	34
87.7330000000	33
87.7630000000	31
87.7930000000	33
87.8230000000	39
87.8530000000	35
87.8830000000	31
87.9130000000	38
87.9430000000	30
87.9730000000	33
88.0030000000	30
88.0330000000	32
88.0630000000	22
88.0930000000	36
88.1230000000	32
88.1530000000	35
88.1830000000	35
88.2130000000	37
88.2430000000	28
88.2730000000	38
88.3030000000	32
88.3330000000	33
88.3630000000	29
88.3930000000	26
88.4230000000	30
88.4530000000	30
88.4830000000	34
88.5130000000	28
88.5430000000	35
88.5730000000	37
88.6030000000	28
88.6330000000	43
88.6630000000	39
88.6930000000	37
88.7230000000	38
88.7530000000	50
88.7830000000	36
88.8130000000	36
88.8430000000	33
88.8730000000	27
88.9030000000	42
88.9330000000	24
88.9630000000	27
88.9930000000	40
89.0230000000	40
89.0530000000	42
89.0830000000	33
89.1130000000	38
89.1430000000	28
89.1730000000	22
89.2030000000	32
89.2330000000	41
89.2630000000	36
89.2930000000	32
89.3230000000	34
89.3530000000	31
89.3830000000	35
89.4130000000	32
89.4430000000	28
89.4730000000	36
89.5030000000	35
89.5330000000	34
89.5630000000	31
89.5930000000	30
89.6230000000	34
89.6530000000	31
89.6830000000	29
89.7130000000	31
89.7430000000	31
89.7730000000	36
89.8030000000	39
89.8330000000	34
89.8630000000	35
89.8930000000	46
89.9230000000	42
89.9530000000	32
89.9830000000	30
90.0130000000	34
90.0430000000	41
90.0730000000	40
90.1030000000	42
90.1330000000	34
90.1630000000	32
90.1930000000	38
90.2230000000	37
90.2530000000	41
90.2830000000	40
90.3130000000	42
90.3430000000	45
90.3730000000	33
90.4030000000	30
90.4330000000	43
90.4630000000	35
90.4930000000	24
90.5230000000	32
90.5530000000	28
90.5830000000	32
90.6130000000	37
90.6430000000	32
90.6730000000	36
90.7030000000	34
90.7330000000	41
90.7630000000	31
90.7930000000	35
90.8230000000	36
90.8530000000	30
90.8830000000	31
90.9130000000	35
90.9430000000	40
90.9730000000	39
91.0030000000	28
91.0330000000	38
91.0630000000	38
91.0930000000	36
91.1230000000	47
91.1530000000	30
91.1830000000	36
91.2130000000	44
91.2430000000	27
91.2730000000	34
91.3030000000	36
91.3330000000	42
91.3630000000	43
91.3930000000	39
91.4230000000	31
91.4530000000	35
91.4830000000	39
91.5130000000	38
91.5430000000	39
91.5730000000	42
91.6030000000	36
91.6330000000	31
91.6630000000	29
91.6930000000	28
91.7230000000	37
91.7530000000	36
91.7830000000	27
91.8130000000	30
91.8430000000	38
91.8730000000	26
91.9030000000	35
91.9330000000	46
91.9630000000	42
91.9930000000	24
92.0230000000	33
92.0530000000	29
92.0830000000	40
92.1130000000	34
92.1430000000	32
92.1730000000	29
92.2030000000	31
92.2330000000	46
92.2630000000	29
92.2930000000	36
92.3230000000	31
92.3530000000	43
92.3830000000	35
92.4130000000	35
92.4430000000	35
92.4730000000	49
92.5030000000	39
92.5330000000	44
92.5630000000	29
92.5930000000	39
92.6230000000	28
92.6530000000	30
92.6830000000	28
92.7130000000	28
92.7430000000	35
92.7730000000	38
92.8030000000	40
92.8330000000	29
92.8630000000	32
92.8930000000	28
92.9230000000	30
92.9530000000	33
92.9830000000	36
93.0130000000	45
93.0430000000	39
93.0730000000	38
93.1030000000	38
93.1330000000	44
93.1630000000	40
93.1930000000	29
93.2230000000	31
93.2530000000	30
93.2830000000	32
93.3130000000	46
93.3430000000	34
93.3730000000	29
93.4030000000	34
93.4330000000	35
93.4630000000	30
93.4930000000	26
93.5230000000	36
93.5530000000	35
93.5830000000	39
93.6130000000	36
93.6430000000	33
93.6730000000	39
93.7030000000	35
93.7330000000	43
93.7630000000	37
93.7930000000	42
93.8230000000	33
93.8530000000	32
93.8830000000	31
93.9130000000	41
93.9430000000	30
93.9730000000	31
94.0030000000	37
94.0330000000	35
94.0630000000	40
94.0930000000	31
94.1230000000	39
94.1530000000	33
94.1830000000	37
94.2130000000	46
94.2430000000	46
94.2730000000	46
94.3030000000	38
94.3330000000	35
94.3630000000	34
94.3930000000	34
94.4230000000	39
94.4530000000	42
94.4830000000	40
94.5130000000	25
94.5430000000	34
94.5730000000	35
94.6030000000	32
94.6330000000	35
94.6630000000	35
94.6930000000	31
94.7230000000	31
94.7530000000	45
94.7830000000	40
94.8130000000	29
94.8430000000	35
94.8730000000	42
94.9030000000	29
94.9330000000	36
94.9630000000	32
94.9930000000	39
95.0230000000	31
95.0530000000	37
95.0830000000	27
95.1130000000	38
95.1430000000	37
95.1730000000	38
95.2030000000	30
95.2330000000	32
95.2630000000	39
95.2930000000	34
95.3230000000	36
95.3530000000	38
95.3830000000	37
95.4130000000	31
95.4430000000	21
95.4730000000	40
95.5030000000	36
95.5330000000	35
95.5630000000	40
95.5930000000	35
95.6230000000	47
95.6530000000	34
95.6830000000	30
95.7130000000	32
95.7430000000	23
95.7730000000	41
95.8030000000	42
95.8330000000	33
95.8630000000	28
95.8930000000	29
95.9230000000	41
95.9530000000	40
95.9830000000	32
96.0130000000	34
96.0430000000	35
96.0730000000	41
96.1030000000	41
96.1330000000	26
96.1630000000	35
96.1930000000	33
96.2230000000	36
96.2530000000	42
96.2830000000	41
96.3130000000	41
96.3430000000	36
96.3730000000	42
96.4030000000	39
96.4330000000	25
96.4630000000	42
96.4930000000	39
96.5230000000	38
96.5530000000	37
96.5830000000	43
96.6130000000	38
96.6430000000	41
96.6730000000	45
96.7030000000	28
96.7330000000	29
96.7630000000	36
96.7930000000	32
96.8230000000	37
96.8530000000	31
96.8830000000	26
96.9130000000	29
96.9430000000	32
96.9730000000	37
97.0030000000	31
97.0330000000	38
97.0630000000	37
97.0930000000	38
97.1230000000	33
97.1530000000	36
97.1830000000	39
97.2130000000	46
97.2430000000	38
97.2730000000	33
97.3030000000	36
97.3330000000	44
97.3630000000	31
97.3930000000	31
97.4230000000	38
97.4530000000	30
97.4830000000	34
97.5130000000	32
97.5430000000	33
97.5730000000	29
97.6030000000	31
97.6330000000	29
97.6630000000	32
97.6930000000	32
97.7230000000	41
97.7530000000	34
97.7830000000	31
97.8130000000	39
97.8430000000	42
97.8730000000	27
97.9030000000	31
97.9330000000	49
97.9630000000	39
97.9930000000	30
98.0230000000	36
98.0530000000	28
98.0830000000	28
98.1130000000	34
98.1430000000	34
98.1730000000	35
98.2030000000	35
98.2330000000	41
98.2630000000	30
98.2930000000	31
98.3230000000	37
98.3530000000	42
98.3830000000	35
98.4130000000	30
98.4430000000	37
98.4730000000	28
98.5030000000	36
98.5330000000	39
98.5630000000	39
98.5930000000	31
98.6230000000	29
98.6530000000	37
98.6830000000	37
98.7130000000	38
98.7430000000	37
98.7730000000	37
98.8030000000	35
98.8330000000	33
98.8630000000	39
98.8930000000	35
98.9230000000	37
98.9530000000	37
98.9830000000	37
99.0130000000	30
99.0430000000	21
99.0730000000	41
99.1030000000	36
99.1330000000	31
99.1630000000	45
99.1930000000	41
99.2230000000	41
99.2530000000	27
99.2830000000	36
99.3130000000	35
99.3430000000	29
99.3730000000	38
99.4030000000	36
99.4330000000	25
99.4630000000	25
99.4930000000	32
99.5230000000	31
99.5530000000	45
99.5830000000	28
99.6130000000	25
99.6430000000	38
99.6730000000	31
99.7030000000	28
99.7330000000	45
99.7630000000	40
99.7930000000	37
99.8230000000	30
99.8530000000	34
99.8830000000	36
99.9130000000	34
99.9430000000	34
99.9730000000	36
100.0030000000	47
100.0330000000	40
100.0630000000	31
100.0930000000	25
100.1230000000	29
100.1530000000	32
100.1830000000	31
100.2130000000	31
100.2430000000	29
100.2730000000	38
100.3030000000	26
100.3330000000	34
100.3630000000	43
100.3930000000	23
100.4230000000	43
100.4530000000	37
100.4830000000	36
100.5130000000	35
100.5430000000	41
100.5730000000	38
100.6030000000	32
100.6330000000	26
100.6630000000	22
100.6930000000	30
100.7230000000	41
100.7530000000	36
100.7830000000	39
100.8130000000	32
100.8430000000	27
100.8730000000	27
100.9030000000	33
100.9330000000	30
100.9630000000	34
100.9930000000	47
101.0230000000	37
101.0530000000	36
101.0830000000	33
101.1130000000	36
101.1430000000	28
101.1730000000	21
101.2030000000	35
101.2330000000	33
101.2630000000	25
101.2930000000	23
101.3230000000	33
101.3530000000	30
101.3830000000	35
101.4130000000	32
101.4430000000	39
101.4730000000	43
101.5030000000	29
101.5330000000	31
101.5630000000	30
101.5930000000	34
101.6230000000	42
101.6530000000	29
101.6830000000	29
101.7130000000	47
101.7430000000	23
101.7730000000	31
101.8030000000	39
101.8330000000	31
101.8630000000	27
101.8930000000	30
101.9230000000	37
101.9530000000	24
101.9830000000	30
102.0130000000	46
102.0430000000	31
102.0730000000	31
102.1030000000	32
102.1330000000	34
102.1630000000	34
102.1930000000	29
102.2230000000	39
102.2530000000	39
102.2830000000	34
102.3130000000	38
102.3430000000	27
102.3730000000	29
102.4030000000	30
102.4330000000	28
102.4630000000	25
102.4930000000	39
102.5230000000	40
102.5530000000	36
102.5830000000	22
102.6130000000	20
102.6430000000	35
102.6730000000	37
102.7030000000	31
102.7330000000	39
102.7630000000	35
102.7930000000	42
102.8230000000	50
102.8530000000	38
102.8830000000	48
102.9130000000	41
102.9430000000	35
102.9730000000	35
103.0030000000	35
103.0330000000	40
103.0630000000	37
103.0930000000	32
103.1230000000	34
103.1530000000	28
103.1830000000	23
103.2130000000	33
103.2430000000	37
103.2730000000	30
103.3030000000	27
103.3330000000	31
103.3630000000	44
103.3930000000	33
103.4230000000	36
103.4530000000	31
103.4830000000	36
103.5130000000	40
103.5430000000	33
103.5730000000	36
103.6030000000	29
103.6330000000	29
103.6630000000	33
103.6930000000	37
103.7230000000	34
103.7530000000	36
103.7830000000	28
103.8130000000	35
103.8430000000	35
103.8730000000	35
103.9030000000	42
103.9330000000	32
103.9630000000	24
103.9930000000	41
104.0230000000	24
104.0530000000	36
104.0830000000	30
104.1130000000	27
104.1430000000	23
104.1730000000	35
104.2030000000	34
104.2330000000	32
104.2630000000	36
104.2930000000	38
104.3230000000	29
104.3530000000	30
104.3830000000	35
104.4130000000	31
104.4430000000	41
104.4730000000	37
104.5030000000	29
104.5330000000	26
104.5630000000	30
104.5930000000	29
104.6230000000	37
104.6530000000	38
104.6830000000	29
104.7130000000	35
104.7430000000	28
104.7730000000	33
104.8030000000	33
104.8330000000	29
104.8630000000	30
104.8930000000	41
104.9230000000	25
104.9530000000	24
104.9830000000	35
105.0130000000	33
105.0430000000	36
105.0730000000	32
105.1030000000	29
105.1330000000	37
105.1630000000	38
105.1930000000	32
105.2230000000	29
105.2530000000	28
105.2830000000	31
105.3130000000	33
105.3430000000	41
105.3730000000	33
105.4030000000	37
105.4330000000	31
105.4630000000	30
105.4930000000	30
105.5230000000	35
105.5530000000	38
105.5830000000	27
105.6130000000	35
105.6430000000	32
105.6730000000	28
105.7030000000	37
105.7330000000	25
105.7630000000	32
105.7930000000	26
105.8230000000	39
105.8530000000	33
105.8830000000	48
105.9130000000	32
105.9430000000	42
105.9730000000	32
106.0030000000	29
106.0330000000	41
106.0630000000	26
106.0930000000	38
106.1230000000	32
106.1530000000	40
106.1830000000	32
106.2130000000	30
106.2430000000	40
106.2730000000	30
106.3030000000	43
106.3330000000	32
106.3630000000	37
106.3930000000	33
106.4230000000	27
106.4530000000	28
106.4830000000	30
106.5130000000	34
106.5430000000	32
106.5730000000	37
106.6030000000	35
106.6330000000	37
106.6630000000	34
106.6930000000	37
106.7230000000	39
106.7530000000	33
106.7830000000	40
106.8130000000	37
106.8430000000	41
106.8730000000	37
106.9030000000	33
106.9330000000	23
106.9630000000	37
106.9930000000	32
107.0230000000	32
107.0530000000	33
107.0830000000	29
107.1130000000	36
107.1430000000	20
107.1730000000	32
107.2030000000	43
107.2330000000	41
107.2630000000	26
107.2930000000	28
107.3230000000	32
107.3530000000	29
107.3830000000	32
107.4130000000	25
107.4430000000	34
107.4730000000	38
107.5030000000	26
107.5330000000	28
107.5630000000	32
107.5930000000	33
107.6230000000	25
107.6530000000	31
107.6830000000	33
107.7130000000	33
107.7430000000	30
107.7730000000	30
107.8030000000	35
107.8330000000	35
107.8630000000	28
107.8930000000	30
107.9230000000	35
107.9530000000	25
107.9830000000	24
108.0130000000	33
108.0430000000	33
108.0730000000	31
108.1030000000	47
108.1330000000	32
108.1630000000	38
108.1930000000	28
108.2230000000	26
108.2530000000	34
108.2830000000	27
108.3130000000	32
108.3430000000	34
108.3730000000	32
108.4030000000	41
108.4330000000	31
108.4630000000	32
108.4930000000	35
108.5230000000	32
108.5530000000	33
108.5830000000	29
108.6130000000	36
108.6430000000	36
108.6730000000	40
108.7030000000	26
108.7330000000	32
108.7630000000	39
108.7930000000	27
108.8230000000	33
108.8530000000	32
108.8830000000	30
108.9130000000	25
108.9430000000	32
108.9730000000	37
109.0030000000	29
109.0330000000	33
109.0630000000	40
109.0930000000	33
109.1230000000	32
109.1530000000	29
109.1830000000	39
109.2130000000	32
109.2430000000	37
109.2730000000	38
109.3030000000	21
109.3330000000	26
109.3630000000	41
109.3930000000	43
109.4230000000	40
109.4530000000	29
109.4830000000	29
109.5130000000	45
109.5430000000	31
109.5730000000	42
109.6030000000	33
109.6330000000	29
109.6630000000	31
109.6930000000	32
109.7230000000	34
109.7530000000	29
109.7830000000	35
109.8130000000	30
109.8430000000	32
109.8730000000	40
109.9030000000	25
109.9330000000	32
109.9630000000	41
109.9930000000	41
110.0230000000	26
110.0530000000	26
110.0830000000	28
110.1130000000	36
110.1430000000	31
110.1730000000	32
110.2030000000	33
110.2330000000	39
110.2630000000	34
110.2930000000	32
110.3230000000	38
110.3530000000	40
110.3830000000	30
110.4130000000	29
110.4430000000	36
110.4730000000	40
110.5030000000	37
110.5330000000	35
110.5630000000	37
110.5930000000	36
110.6230000000	39
110.6530000000	32
110.6830000000	41
110.7130000000	41
110.7430000000	46
110.7730000000	40
110.8030000000	33
110.8330000000	35
110.8630000000	30
110.8930000000	29
110.9230000000	38
110.9530000000	34
110.9830000000	32
111.0130000000	41
111.0430000000	40
111.0730000000	35
111.1030000000	31
111.1330000000	34
111.1630000000	34
111.1930000000	36
111.2230000000	39
111.2530000000	25
111.2830000000	35
111.3130000000	33
111.3430000000	32
111.3730000000	31
111.4030000000	36
111.4330000000	34
111.4630000000	39
111.4930000000	33
111.5230000000	33
111.5530000000	31
111.5830000000	33
111.6130000000	39
111.6430000000	41
111.6730000000	39
111.7030000000	33
111.7330000000	32
111.7630000000	34
111.7930000000	31
111.8230000000	44
111.8530000000	32
111.8830000000	23
111.9130000000	37
111.9430000000	32
111.9730000000	35
112.0030000000	33
112.0330000000	29
112.0630000000	30
112.0930000000	35
112.1230000000	29
112.1530000000	29
112.1830000000	48
112.2130000000	19
112.2430000000	30
112.2730000000	38
112.3030000000	43
112.3330000000	40
112.3630000000	31
112.3930000000	29
112.4230000000	36
112.4530000000	34
112.4830000000	35
112.5130000000	32
112.5430000000	24
112.5730000000	35
112.6030000000	47
112.6330000000	30
112.6630000000	33
112.6930000000	35
112.7230000000	34
112.7530000000	41
112.7830000000	46
112.8130000000	39
112.8430000000	34
112.8730000000	37
112.9030000000	31
112.9330000000	39
112.9630000000	28
112.9930000000	32
113.0230000000	33
113.0530000000	29
113.0830000000	33
113.1130000000	34
113.1430000000	24
113.1730000000	50
113.2030000000	33
113.2330000000	30
113.2630000000	24
113.2930000000	26
113.3230000000	31
113.3530000000	31
113.3830000000	39
113.4130000000	35
113.4430000000	23
113.4730000000	32
113.5030000000	35
113.5330000000	32
113.5630000000	40
113.5930000000	30
113.6230000000	41
113.6530000000	33
113.6830000000	39
113.7130000000	44
113.7430000000	51
113.7730000000	34
113.8030000000	42
113.8330000000	35
113.8630000000	38
113.8930000000	45
113.9230000000	32
113.9530000000	36
113.9830000000	36
114.0130000000	46
114.0430000000	26
114.0730000000	34
114.1030000000	36
114.1330000000	25
114.1630000000	35
114.1930000000	33
114.2230000000	28
114.2530000000	40
114.2830000000	45
114.3130000000	29
114.3430000000	33
114.3730000000	36
114.4030000000	30
114.4330000000	31
114.4630000000	1
114.4930000000	1
114.5230000000	1
114.5530000000	1
114.5830000000	1
