0.3130000000	1
0.3430000000	1
0.3730000000	1
0.4030000000	1
0.4330000000	1
0.4630000000	2
0.4930000000	1
0.5230000000	1
0.5530000000	1
0.5830000000	1
0.6130000000	1
0.6430000000	1
0.6730000000	2
0.7030000000	1
0.7330000000	1
0.7630000000	2
0.7930000000	1
0.8230000000	1
0.8530000000	1
0.8830000000	1
0.9130000000	1
0.9430000000	1
0.9730000000	1
1.0030000000	2
1.0330000000	1
1.0630000000	1
1.0930000000	1
1.1230000000	1
1.1530000000	1
1.1830000000	1
1.2130000000	1
1.2430000000	2
1.2730000000	2
1.3030000000	1
1.3330000000	1
1.3630000000	1
1.3930000000	1
1.4230000000	1
1.4530000000	1
1.4830000000	1
1.5130000000	1
1.5430000000	1
1.5730000000	1
1.6030000000	1
1.6330000000	1
1.6630000000	1
1.6930000000	1
1.7230000000	1
1.7530000000	2
1.7830000000	1
1.8130000000	1
1.8430000000	1
1.8730000000	2
1.9030000000	1
1.9330000000	2
1.9630000000	1
1.9930000000	1
2.0230000000	1
2.0530000000	1
2.0830000000	2
2.1130000000	1
2.1430000000	1
2.1730000000	1
2.2030000000	2
2.2330000000	2
2.2630000000	1
2.2930000000	1
2.3230000000	1
2.3530000000	1
2.3830000000	1
2.4130000000	1
2.4430000000	1
2.4730000000	1
2.5030000000	2
2.5330000000	2
2.5630000000	1
2.5930000000	1
2.6230000000	1
2.6530000000	1
2.6830000000	1
2.7130000000	1
2.7430000000	2
2.7730000000	3
2.8030000000	2
2.8330000000	3
2.8630000000	1
2.8930000000	2
2.9230000000	3
2.9530000000	1
2.9830000000	1
3.0130000000	1
3.0430000000	1
3.0730000000	1
3.1030000000	1
3.1330000000	2
3.1630000000	2
3.1930000000	2
3.2230000000	1
3.2530000000	1
3.2830000000	1
3.3130000000	1
3.3430000000	2
3.3730000000	5
3.4030000000	3
3.4330000000	1
3.4630000000	1
3.4930000000	2
3.5230000000	3
3.5530000000	3
3.5830000000	2
3.6130000000	2
3.6430000000	1
3.6730000000	3
3.7030000000	2
3.7330000000	4
3.7630000000	2
3.7930000000	2
3.8230000000	2
3.8530000000	2
3.8830000000	1
3.9130000000	3
3.9430000000	2
3.9730000000	1
4.0030000000	2
4.0330000000	2
4.0630000000	4
4.0930000000	2
4.1230000000	2
4.1530000000	3
4.1830000000	2
4.2130000000	3
4.2430000000	1
4.2730000000	2
4.3030000000	5
4.3330000000	1
4.3630000000	4
4.3930000000	5
4.4230000000	9
4.4530000000	7
4.4830000000	9
4.5130000000	27
4.5430000000	34
4.5730000000	53
4.6030000000	79
4.6330000000	112
4.6630000000	116
4.6930000000	123
4.7230000000	124
4.7530000000	144
4.7830000000	124
4.8130000000	127
4.8430000000	140
4.8730000000	161
4.9030000000	133
4.9330000000	137
4.9630000000	133
4.9930000000	111
5.0230000000	140
5.0530000000	146
5.0830000000	162
5.1130000000	123
5.1430000000	159
5.1730000000	128
5.2030000000	130
5.2330000000	127
5.2630000000	142
5.2930000000	137
5.3230000000	141
5.3530000000	142
5.3830000000	157
5.4130000000	148
5.4430000000	136
5.4730000000	145
5.5030000000	143
5.5330000000	134
5.5630000000	163
5.5930000000	118
5.6230000000	151
5.6530000000	137
5.6830000000	140
5.7130000000	157
5.7430000000	145
5.7730000000	143
5.8030000000	124
5.8330000000	138
5.8630000000	155
5.8930000000	142
5.9230000000	163
5.9530000000	140
5.9830000000	143
6.0130000000	141
6.0430000000	157
6.0730000000	143
6.1030000000	148
6.1330000000	147
6.1630000000	148
6.1930000000	140
6.2230000000	151
6.2530000000	157
6.2830000000	145
6.3130000000	149
6.3430000000	159
6.3730000000	149
6.4030000000	151
6.4330000000	137
6.4630000000	147
6.4930000000	155
6.5230000000	149
6.5530000000	133
6.5830000000	174
6.6130000000	177
6.6430000000	144
6.6730000000	141
6.7030000000	151
6.7330000000	161
6.7630000000	127
6.7930000000	129
6.8230000000	148
6.8530000000	151
6.8830000000	150
6.9130000000	146
6.9430000000	146
6.9730000000	150
7.0030000000	153
7.0330000000	146
7.0630000000	143
7.0930000000	143
7.1230000000	147
7.1530000000	149
7.1830000000	155
7.2130000000	133
7.2430000000	148
7.2730000000	163
7.3030000000	138
7.3330000000	143
7.3630000000	150
7.3930000000	129
7.4230000000	140
7.4530000000	151
7.4830000000	141
7.5130000000	152
7.5430000000	158
7.5730000000	140
7.6030000000	156
7.6330000000	154
7.6630000000	143
7.6930000000	147
7.7230000000	137
7.7530000000	142
7.7830000000	153
7.8130000000	147
7.8430000000	140
7.8730000000	128
7.9030000000	136
7.9330000000	153
7.9630000000	150
7.9930000000	146
8.0230000000	144
8.0530000000	152
8.0830000000	132
8.1130000000	149
8.1430000000	147
8.1730000000	137
8.2030000000	146
8.2330000000	152
8.2630000000	127
8.2930000000	143
8.3230000000	167
8.3530000000	149
8.3830000000	147
8.4130000000	151
8.4430000000	155
8.4730000000	159
8.5030000000	127
8.5330000000	152
8.5630000000	140
8.5930000000	159
8.6230000000	166
8.6530000000	148
8.6830000000	165
8.7130000000	135
8.7430000000	134
8.7730000000	128
8.8030000000	164
8.8330000000	150
8.8630000000	155
8.8930000000	136
8.9230000000	149
8.9530000000	152
8.9830000000	164
9.0130000000	149
9.0430000000	149
9.0730000000	149
9.1030000000	145
9.1330000000	142
9.1630000000	156
9.1930000000	140
9.2230000000	125
9.2530000000	152
9.2830000000	157
9.3130000000	144
9.3430000000	143
9.3730000000	134
9.4030000000	150
9.4330000000	163
9.4630000000	140
9.4930000000	138
9.5230000000	160
9.5530000000	157
9.5830000000	131
9.6130000000	146
9.6430000000	161
9.6730000000	155
9.7030000000	151
9.7330000000	143
9.7630000000	133
9.7930000000	157
9.8230000000	159
9.8530000000	151
9.8830000000	160
9.9130000000	124
9.9430000000	145
9.9730000000	145
10.0030000000	161
10.0330000000	152
10.0630000000	150
10.0930000000	144
10.1230000000	164
10.1530000000	153
10.1830000000	139
10.2130000000	141
10.2430000000	158
10.2730000000	139
10.3030000000	133
10.3330000000	161
10.3630000000	138
10.3930000000	161
10.4230000000	154
10.4530000000	132
10.4830000000	141
10.5130000000	173
10.5430000000	165
10.5730000000	153
10.6030000000	148
10.6330000000	157
10.6630000000	136
10.6930000000	131
10.7230000000	194
10.7530000000	140
10.7830000000	145
10.8130000000	146
10.8430000000	156
10.8730000000	132
10.9030000000	165
10.9330000000	169
10.9630000000	158
10.9930000000	162
11.0230000000	145
11.0530000000	147
11.0830000000	163
11.1130000000	157
11.1430000000	151
11.1730000000	163
11.2030000000	164
11.2330000000	142
11.2630000000	146
11.2930000000	159
11.3230000000	154
11.3530000000	162
11.3830000000	143
11.4130000000	148
11.4430000000	144
11.4730000000	163
11.5030000000	145
11.5330000000	157
11.5630000000	158
11.5930000000	163
11.6230000000	148
11.6530000000	143
11.6830000000	153
11.7130000000	165
11.7430000000	160
11.7730000000	133
11.8030000000	143
11.8330000000	144
11.8630000000	157
11.8930000000	165
11.9230000000	154
11.9530000000	168
11.9830000000	140
12.0130000000	140
12.0430000000	133
12.0730000000	132
12.1030000000	156
12.1330000000	145
12.1630000000	132
12.1930000000	143
12.2230000000	151
12.2530000000	156
12.2830000000	145
12.3130000000	127
12.3430000000	169
12.3730000000	148
12.4030000000	138
12.4330000000	167
12.4630000000	183
12.4930000000	166
12.5230000000	154
12.5530000000	143
12.5830000000	139
12.6130000000	148
12.6430000000	162
12.6730000000	150
12.7030000000	159
12.7330000000	156
12.7630000000	147
12.7930000000	139
12.8230000000	153
12.8530000000	159
12.8830000000	146
12.9130000000	141
12.9430000000	154
12.9730000000	150
13.0030000000	149
13.0330000000	154
13.0630000000	146
13.0930000000	156
13.1230000000	151
13.1530000000	138
13.1830000000	152
13.2130000000	154
13.2430000000	128
13.2730000000	138
13.3030000000	131
13.3330000000	145
13.3630000000	157
13.3930000000	155
13.4230000000	141
13.4530000000	144
13.4830000000	148
13.5130000000	135
13.5430000000	147
13.5730000000	140
13.6030000000	143
13.6330000000	147
13.6630000000	144
13.6930000000	155
13.7230000000	149
13.7530000000	141
13.7830000000	152
13.8130000000	132
13.8430000000	128
13.8730000000	157
13.9030000000	143
13.9330000000	150
13.9630000000	141
13.9930000000	144
14.0230000000	140
14.0530000000	152
14.0830000000	154
14.1130000000	121
14.1430000000	133
14.1730000000	145
14.2030000000	137
14.2330000000	162
14.2630000000	153
14.2930000000	143
14.3230000000	138
14.3530000000	155
14.3830000000	142
14.4130000000	140
14.4430000000	142
14.4730000000	137
14.5030000000	133
14.5330000000	154
14.5630000000	163
14.5930000000	141
14.6230000000	140
14.6530000000	149
14.6830000000	144
14.7130000000	145
14.7430000000	158
14.7730000000	155
14.8030000000	147
14.8330000000	163
14.8630000000	157
14.8930000000	163
14.9230000000	166
14.9530000000	151
14.9830000000	149
15.0130000000	172
15.0430000000	152
15.0730000000	144
15.1030000000	176
15.1330000000	142
15.1630000000	154
15.1930000000	151
15.2230000000	126
15.2530000000	142
15.2830000000	154
15.3130000000	179
15.3430000000	154
15.3730000000	134
15.4030000000	150
15.4330000000	144
15.4630000000	148
15.4930000000	144
15.5230000000	144
15.5530000000	140
15.5830000000	156
15.6130000000	137
15.6430000000	159
15.6730000000	161
15.7030000000	160
15.7330000000	161
15.7630000000	158
15.7930000000	167
15.8230000000	147
15.8530000000	119
15.8830000000	154
15.9130000000	153
15.9430000000	146
15.9730000000	137
16.0030000000	129
16.0330000000	130
16.0630000000	149
16.0930000000	150
16.1230000000	135
16.1530000000	141
16.1830000000	135
16.2130000000	143
16.2430000000	132
16.2730000000	158
16.3030000000	151
16.3330000000	159
16.3630000000	160
16.3930000000	147
16.4230000000	152
16.4530000000	142
16.4830000000	146
16.5130000000	156
16.5430000000	153
16.5730000000	161
16.6030000000	149
16.6330000000	157
16.6630000000	138
16.6930000000	131
16.7230000000	156
16.7530000000	168
16.7830000000	152
16.8130000000	142
16.8430000000	155
16.8730000000	135
16.9030000000	142
16.9330000000	142
16.9630000000	160
16.9930000000	141
17.0230000000	152
17.0530000000	136
17.0830000000	150
17.1130000000	153
17.1430000000	162
17.1730000000	166
17.2030000000	169
17.2330000000	167
17.2630000000	161
17.2930000000	142
17.3230000000	162
17.3530000000	163
17.3830000000	156
17.4130000000	176
17.4430000000	167
17.4730000000	155
17.5030000000	147
17.5330000000	152
17.5630000000	153
17.5930000000	150
17.6230000000	146
17.6530000000	165
17.6830000000	153
17.7130000000	140
17.7430000000	141
17.7730000000	156
17.8030000000	162
17.8330000000	148
17.8630000000	143
17.8930000000	143
17.9230000000	164
17.9530000000	169
17.9830000000	151
18.0130000000	144
18.0430000000	158
18.0730000000	182
18.1030000000	142
18.1330000000	151
18.1630000000	145
18.1930000000	161
18.2230000000	167
18.2530000000	147
18.2830000000	145
18.3130000000	175
18.3430000000	156
18.3730000000	143
18.4030000000	141
18.4330000000	148
18.4630000000	180
18.4930000000	168
18.5230000000	155
18.5530000000	144
18.5830000000	163
18.6130000000	162
18.6430000000	146
18.6730000000	149
18.7030000000	168
18.7330000000	179
18.7630000000	154
18.7930000000	162
18.8230000000	165
18.8530000000	159
18.8830000000	156
18.9130000000	158
18.9430000000	131
18.9730000000	156
19.0030000000	158
19.0330000000	154
19.0630000000	162
19.0930000000	166
19.1230000000	154
19.1530000000	172
19.1830000000	165
19.2130000000	160
19.2430000000	160
19.2730000000	175
19.3030000000	192
19.3330000000	145
19.3630000000	175
19.3930000000	199
19.4230000000	168
19.4530000000	158
19.4830000000	155
19.5130000000	163
19.5430000000	177
19.5730000000	156
19.6030000000	160
19.6330000000	138
19.6630000000	160
19.6930000000	171
19.7230000000	190
19.7530000000	166
19.7830000000	149
19.8130000000	150
19.8430000000	167
19.8730000000	160
19.9030000000	163
19.9330000000	166
19.9630000000	178
19.9930000000	164
20.0230000000	190
20.0530000000	164
20.0830000000	125
20.1130000000	191
20.1430000000	147
20.1730000000	156
20.2030000000	181
20.2330000000	158
20.2630000000	165
20.2930000000	164
20.3230000000	183
20.3530000000	159
20.3830000000	157
20.4130000000	156
20.4430000000	166
20.4730000000	179
20.5030000000	160
20.5330000000	170
20.5630000000	160
20.5930000000	144
20.6230000000	186
20.6530000000	158
20.6830000000	168
20.7130000000	183
20.7430000000	197
20.7730000000	180
20.8030000000	157
20.8330000000	187
20.8630000000	151
20.8930000000	185
20.9230000000	196
20.9530000000	163
20.9830000000	156
21.0130000000	169
21.0430000000	157
21.0730000000	167
21.1030000000	146
21.1330000000	166
21.1630000000	189
21.1930000000	180
21.2230000000	186
21.2530000000	174
21.2830000000	190
21.3130000000	170
21.3430000000	164
21.3730000000	216
21.4030000000	191
21.4330000000	192
21.4630000000	169
21.4930000000	187
21.5230000000	181
21.5530000000	199
21.5830000000	187
21.6130000000	192
21.6430000000	192
21.6730000000	177
21.7030000000	190
21.7330000000	194
21.7630000000	182
21.7930000000	199
21.8230000000	155
21.8530000000	175
21.8830000000	191
21.9130000000	185
21.9430000000	176
21.9730000000	183
22.0030000000	176
22.0330000000	188
22.0630000000	184
22.0930000000	181
22.1230000000	203
22.1530000000	168
22.1830000000	169
22.2130000000	175
22.2430000000	170
22.2730000000	169
22.3030000000	171
22.3330000000	182
22.3630000000	192
22.3930000000	188
22.4230000000	183
22.4530000000	207
22.4830000000	217
22.5130000000	206
22.5430000000	205
22.5730000000	193
22.6030000000	190
22.6330000000	195
22.6630000000	194
22.6930000000	191
22.7230000000	175
22.7530000000	191
22.7830000000	184
22.8130000000	202
22.8430000000	214
22.8730000000	176
22.9030000000	186
22.9330000000	199
22.9630000000	180
22.9930000000	226
23.0230000000	211
23.0530000000	189
23.0830000000	223
23.1130000000	205
23.1430000000	217
23.1730000000	224
23.2030000000	232
23.2330000000	218
23.2630000000	209
23.2930000000	215
23.3230000000	244
23.3530000000	258
23.3830000000	335
23.4130000000	462
23.4430000000	622
23.4730000000	778
23.5030000000	1223
23.5330000000	1806
23.5630000000	2572
23.5930000000	3310
23.6230000000	3521
23.6530000000	3216
23.6830000000	2224
23.7130000000	1464
23.7430000000	977
23.7730000000	653
23.8030000000	450
23.8330000000	368
23.8630000000	244
23.8930000000	256
23.9230000000	253
23.9530000000	262
23.9830000000	223
24.0130000000	206
24.0430000000	225
24.0730000000	214
24.1030000000	214
24.1330000000	203
24.1630000000	204
24.1930000000	209
24.2230000000	199
24.2530000000	207
24.2830000000	194
24.3130000000	194
24.3430000000	189
24.3730000000	187
24.4030000000	194
24.4330000000	190
24.4630000000	172
24.4930000000	205
24.5230000000	193
24.5530000000	195
24.5830000000	176
24.6130000000	169
24.6430000000	176
24.6730000000	179
24.7030000000	196
24.7330000000	194
24.7630000000	172
24.7930000000	170
24.8230000000	198
24.8530000000	194
24.8830000000	173
24.9130000000	199
24.9430000000	224
24.9730000000	177
25.0030000000	176
25.0330000000	185
25.0630000000	186
25.0930000000	193
25.1230000000	206
25.1530000000	162
25.1830000000	179
25.2130000000	204
25.2430000000	190
25.2730000000	199
25.3030000000	186
25.3330000000	183
25.3630000000	192
25.3930000000	198
25.4230000000	215
25.4530000000	188
25.4830000000	217
25.5130000000	200
25.5430000000	195
25.5730000000	181
25.6030000000	197
25.6330000000	183
25.6630000000	210
25.6930000000	197
25.7230000000	184
25.7530000000	183
25.7830000000	182
25.8130000000	187
25.8430000000	187
25.8730000000	185
25.9030000000	199
25.9330000000	176
25.9630000000	204
25.9930000000	206
26.0230000000	188
26.0530000000	170
26.0830000000	202
26.1130000000	198
26.1430000000	168
26.1730000000	198
26.2030000000	208
26.2330000000	166
26.2630000000	173
26.2930000000	155
26.3230000000	187
26.3530000000	200
26.3830000000	185
26.4130000000	189
26.4430000000	203
26.4730000000	184
26.5030000000	197
26.5330000000	174
26.5630000000	185
26.5930000000	170
26.6230000000	164
26.6530000000	186
26.6830000000	186
26.7130000000	185
26.7430000000	188
26.7730000000	183
26.8030000000	171
26.8330000000	172
26.8630000000	183
26.8930000000	193
26.9230000000	194
26.9530000000	184
26.9830000000	193
27.0130000000	182
27.0430000000	180
27.0730000000	205
27.1030000000	195
27.1330000000	173
27.1630000000	188
27.1930000000	200
27.2230000000	167
27.2530000000	194
27.2830000000	194
27.3130000000	195
27.3430000000	178
27.3730000000	180
27.4030000000	161
27.4330000000	172
27.4630000000	175
27.4930000000	159
27.5230000000	181
27.5530000000	183
27.5830000000	162
27.6130000000	178
27.6430000000	160
27.6730000000	135
27.7030000000	201
27.7330000000	163
27.7630000000	175
27.7930000000	161
27.8230000000	152
27.8530000000	165
27.8830000000	180
27.9130000000	198
27.9430000000	214
27.9730000000	185
28.0030000000	163
28.0330000000	158
28.0630000000	173
28.0930000000	188
28.1230000000	209
28.1530000000	189
28.1830000000	177
28.2130000000	200
28.2430000000	178
28.2730000000	173
28.3030000000	166
28.3330000000	157
28.3630000000	162
28.3930000000	164
28.4230000000	169
28.4530000000	196
28.4830000000	180
28.5130000000	169
28.5430000000	187
28.5730000000	159
28.6030000000	150
28.6330000000	176
28.6630000000	198
28.6930000000	176
28.7230000000	182
28.7530000000	190
28.7830000000	165
28.8130000000	172
28.8430000000	161
28.8730000000	188
28.9030000000	179
28.9330000000	149
28.9630000000	197
28.9930000000	163
29.0230000000	169
29.0530000000	172
29.0830000000	155
29.1130000000	176
29.1430000000	159
29.1730000000	180
29.2030000000	150
29.2330000000	165
29.2630000000	190
29.2930000000	183
29.3230000000	179
29.3530000000	164
29.3830000000	158
29.4130000000	177
29.4430000000	142
29.4730000000	160
29.5030000000	155
29.5330000000	184
29.5630000000	174
29.5930000000	171
29.6230000000	174
29.6530000000	162
29.6830000000	153
29.7130000000	144
29.7430000000	164
29.7730000000	170
29.8030000000	153
29.8330000000	165
29.8630000000	137
29.8930000000	174
29.9230000000	159
29.9530000000	153
29.9830000000	151
30.0130000000	155
30.0430000000	159
30.0730000000	163
30.1030000000	138
30.1330000000	158
30.1630000000	143
30.1930000000	149
30.2230000000	167
30.2530000000	164
30.2830000000	142
30.3130000000	155
30.3430000000	152
30.3730000000	150
30.4030000000	151
30.4330000000	180
30.4630000000	154
30.4930000000	183
30.5230000000	141
30.5530000000	140
30.5830000000	158
30.6130000000	144
30.6430000000	180
30.6730000000	169
30.7030000000	172
30.7330000000	190
30.7630000000	203
30.7930000000	188
30.8230000000	163
30.8530000000	162
30.8830000000	177
30.9130000000	151
30.9430000000	173
30.9730000000	160
31.0030000000	173
31.0330000000	156
31.0630000000	166
31.0930000000	166
31.1230000000	166
31.1530000000	167
31.1830000000	188
31.2130000000	159
31.2430000000	164
31.2730000000	157
31.3030000000	174
31.3330000000	133
31.3630000000	169
31.3930000000	140
31.4230000000	175
31.4530000000	165
31.4830000000	171
31.5130000000	178
31.5430000000	166
31.5730000000	143
31.6030000000	155
31.6330000000	188
31.6630000000	173
31.6930000000	161
31.7230000000	165
31.7530000000	153
31.7830000000	160
31.8130000000	176
31.8430000000	163
31.8730000000	147
31.9030000000	155
31.9330000000	158
31.9630000000	149
31.9930000000	160
32.0230000000	190
32.0530000000	147
32.0830000000	146
32.1130000000	163
32.1430000000	178
32.1730000000	176
32.2030000000	164
32.2330000000	150
32.2630000000	168
32.2930000000	144
32.3230000000	167
32.3530000000	160
32.3830000000	150
32.4130000000	156
32.4430000000	161
32.4730000000	183
32.5030000000	151
32.5330000000	175
32.5630000000	165
32.5930000000	163
32.6230000000	167
32.6530000000	140
32.6830000000	138
32.7130000000	173
32.7430000000	172
32.7730000000	145
32.8030000000	157
32.8330000000	163
32.8630000000	157
32.8930000000	193
32.9230000000	178
32.9530000000	171
32.9830000000	175
33.0130000000	168
33.0430000000	157
33.0730000000	172
33.1030000000	169
33.1330000000	161
33.1630000000	185
33.1930000000	178
33.2230000000	176
33.2530000000	153
33.2830000000	204
33.3130000000	214
33.3430000000	187
33.3730000000	191
33.4030000000	231
33.4330000000	289
33.4630000000	355
33.4930000000	410
33.5230000000	621
33.5530000000	810
33.5830000000	969
33.6130000000	1174
33.6430000000	1267
33.6730000000	1117
33.7030000000	995
33.7330000000	872
33.7630000000	690
33.7930000000	447
33.8230000000	320
33.8530000000	241
33.8830000000	220
33.9130000000	214
33.9430000000	204
33.9730000000	189
34.0030000000	186
34.0330000000	181
34.0630000000	170
34.0930000000	158
34.1230000000	157
34.1530000000	157
34.1830000000	167
34.2130000000	172
34.2430000000	153
34.2730000000	153
34.3030000000	137
34.3330000000	146
34.3630000000	161
34.3930000000	167
34.4230000000	154
34.4530000000	155
34.4830000000	146
34.5130000000	154
34.5430000000	151
34.5730000000	160
34.6030000000	146
34.6330000000	146
34.6630000000	131
34.6930000000	133
34.7230000000	149
34.7530000000	155
34.7830000000	160
34.8130000000	143
34.8430000000	150
34.8730000000	143
34.9030000000	150
34.9330000000	155
34.9630000000	144
34.9930000000	149
35.0230000000	142
35.0530000000	143
35.0830000000	152
35.1130000000	157
35.1430000000	153
35.1730000000	155
35.2030000000	135
35.2330000000	139
35.2630000000	141
35.2930000000	161
35.3230000000	136
35.3530000000	138
35.3830000000	137
35.4130000000	142
35.4430000000	147
35.4730000000	136
35.5030000000	143
35.5330000000	147
35.5630000000	151
35.5930000000	122
35.6230000000	131
35.6530000000	140
35.6830000000	122
35.7130000000	137
35.7430000000	137
35.7730000000	142
35.8030000000	121
35.8330000000	134
35.8630000000	129
35.8930000000	141
35.9230000000	141
35.9530000000	131
35.9830000000	119
36.0130000000	129
36.0430000000	150
36.0730000000	127
36.1030000000	135
36.1330000000	145
36.1630000000	150
36.1930000000	133
36.2230000000	158
36.2530000000	146
36.2830000000	129
36.3130000000	128
36.3430000000	140
36.3730000000	121
36.4030000000	124
36.4330000000	142
36.4630000000	122
36.4930000000	130
36.5230000000	128
36.5530000000	130
36.5830000000	131
36.6130000000	119
36.6430000000	123
36.6730000000	118
36.7030000000	149
36.7330000000	135
36.7630000000	127
36.7930000000	126
36.8230000000	129
36.8530000000	136
36.8830000000	110
36.9130000000	148
36.9430000000	163
36.9730000000	119
37.0030000000	119
37.0330000000	125
37.0630000000	141
37.0930000000	117
37.1230000000	130
37.1530000000	131
37.1830000000	125
37.2130000000	119
37.2430000000	117
37.2730000000	124
37.3030000000	135
37.3330000000	138
37.3630000000	112
37.3930000000	127
37.4230000000	111
37.4530000000	115
37.4830000000	98
37.5130000000	126
37.5430000000	128
37.5730000000	123
37.6030000000	106
37.6330000000	100
37.6630000000	109
37.6930000000	117
37.7230000000	105
37.7530000000	126
37.7830000000	112
37.8130000000	124
37.8430000000	120
37.8730000000	119
37.9030000000	113
37.9330000000	112
37.9630000000	96
37.9930000000	106
38.0230000000	144
38.0530000000	124
38.0830000000	112
38.1130000000	122
38.1430000000	123
38.1730000000	121
38.2030000000	116
38.2330000000	114
38.2630000000	126
38.2930000000	116
38.3230000000	131
38.3530000000	119
38.3830000000	121
38.4130000000	131
38.4430000000	119
38.4730000000	103
38.5030000000	113
38.5330000000	128
38.5630000000	115
38.5930000000	120
38.6230000000	132
38.6530000000	118
38.6830000000	103
38.7130000000	103
38.7430000000	110
38.7730000000	113
38.8030000000	128
38.8330000000	132
38.8630000000	114
38.8930000000	107
38.9230000000	112
38.9530000000	126
38.9830000000	121
39.0130000000	104
39.0430000000	119
39.0730000000	122
39.1030000000	106
39.1330000000	106
39.1630000000	149
39.1930000000	112
39.2230000000	119
39.2530000000	131
39.2830000000	123
39.3130000000	132
39.3430000000	109
39.3730000000	109
39.4030000000	121
39.4330000000	134
39.4630000000	119
39.4930000000	115
39.5230000000	104
39.5530000000	115
39.5830000000	122
39.6130000000	110
39.6430000000	116
39.6730000000	110
39.7030000000	102
39.7330000000	135
39.7630000000	112
39.7930000000	111
39.8230000000	119
39.8530000000	121
39.8830000000	115
39.9130000000	112
39.9430000000	120
39.9730000000	107
40.0030000000	103
40.0330000000	98
40.0630000000	104
40.0930000000	113
40.1230000000	109
40.1530000000	96
40.1830000000	98
40.2130000000	125
40.2430000000	107
40.2730000000	104
40.3030000000	113
40.3330000000	113
40.3630000000	112
40.3930000000	117
40.4230000000	131
40.4530000000	100
40.4830000000	118
40.5130000000	116
40.5430000000	123
40.5730000000	123
40.6030000000	101
40.6330000000	127
40.6630000000	113
40.6930000000	111
40.7230000000	107
40.7530000000	127
40.7830000000	125
40.8130000000	112
40.8430000000	120
40.8730000000	107
40.9030000000	113
40.9330000000	131
40.9630000000	116
40.9930000000	128
41.0230000000	132
41.0530000000	135
41.0830000000	115
41.1130000000	127
41.1430000000	123
41.1730000000	136
41.2030000000	122
41.2330000000	130
41.2630000000	115
41.2930000000	143
41.3230000000	129
41.3530000000	112
41.3830000000	124
41.4130000000	157
41.4430000000	175
41.4730000000	166
41.5030000000	187
41.5330000000	190
41.5630000000	189
41.5930000000	151
41.6230000000	145
41.6530000000	131
41.6830000000	154
41.7130000000	118
41.7430000000	113
41.7730000000	130
41.8030000000	107
41.8330000000	109
41.8630000000	111
41.8930000000	124
41.9230000000	122
41.9530000000	109
41.9830000000	112
42.0130000000	116
42.0430000000	110
42.0730000000	124
42.1030000000	122
42.1330000000	120
42.1630000000	115
42.1930000000	114
42.2230000000	111
42.2530000000	107
42.2830000000	114
42.3130000000	112
42.3430000000	104
42.3730000000	113
42.4030000000	113
42.4330000000	115
42.4630000000	127
42.4930000000	120
42.5230000000	114
42.5530000000	113
42.5830000000	106
42.6130000000	102
42.6430000000	110
42.6730000000	118
42.7030000000	114
42.7330000000	109
42.7630000000	109
42.7930000000	116
42.8230000000	132
42.8530000000	107
42.8830000000	101
42.9130000000	111
42.9430000000	121
42.9730000000	117
43.0030000000	125
43.0330000000	96
43.0630000000	108
43.0930000000	108
43.1230000000	101
43.1530000000	114
43.1830000000	117
43.2130000000	134
43.2430000000	136
43.2730000000	107
43.3030000000	105
43.3330000000	123
43.3630000000	133
43.3930000000	107
43.4230000000	106
43.4530000000	107
43.4830000000	127
43.5130000000	103
43.5430000000	131
43.5730000000	117
43.6030000000	124
43.6330000000	102
43.6630000000	100
43.6930000000	108
43.7230000000	134
43.7530000000	129
43.7830000000	110
43.8130000000	115
43.8430000000	105
43.8730000000	110
43.9030000000	92
43.9330000000	130
43.9630000000	105
43.9930000000	99
44.0230000000	124
44.0530000000	100
44.0830000000	111
44.1130000000	107
44.1430000000	102
44.1730000000	82
44.2030000000	104
44.2330000000	99
44.2630000000	100
44.2930000000	86
44.3230000000	105
44.3530000000	106
44.3830000000	118
44.4130000000	106
44.4430000000	107
44.4730000000	122
44.5030000000	107
44.5330000000	114
44.5630000000	119
44.5930000000	110
44.6230000000	110
44.6530000000	97
44.6830000000	114
44.7130000000	103
44.7430000000	97
44.7730000000	108
44.8030000000	110
44.8330000000	117
44.8630000000	86
44.8930000000	92
44.9230000000	113
44.9530000000	93
44.9830000000	104
45.0130000000	111
45.0430000000	95
45.0730000000	112
45.1030000000	110
45.1330000000	95
45.1630000000	100
45.1930000000	102
45.2230000000	103
45.2530000000	98
45.2830000000	99
45.3130000000	111
45.3430000000	105
45.3730000000	112
45.4030000000	100
45.4330000000	93
45.4630000000	94
45.4930000000	103
45.5230000000	113
45.5530000000	96
45.5830000000	94
45.6130000000	104
45.6430000000	92
45.6730000000	92
45.7030000000	113
45.7330000000	100
45.7630000000	75
45.7930000000	91
45.8230000000	103
45.8530000000	112
45.8830000000	102
45.9130000000	89
45.9430000000	105
45.9730000000	110
46.0030000000	101
46.0330000000	107
46.0630000000	89
46.0930000000	97
46.1230000000	105
46.1530000000	114
46.1830000000	101
46.2130000000	114
46.2430000000	97
46.2730000000	117
46.3030000000	108
46.3330000000	86
46.3630000000	103
46.3930000000	89
46.4230000000	94
46.4530000000	92
46.4830000000	98
46.5130000000	96
46.5430000000	88
46.5730000000	89
46.6030000000	102
46.6330000000	85
46.6630000000	98
46.6930000000	93
46.7230000000	121
46.7530000000	87
46.7830000000	83
46.8130000000	90
46.8430000000	95
46.8730000000	88
46.9030000000	106
46.9330000000	98
46.9630000000	91
46.9930000000	90
47.0230000000	87
47.0530000000	64
47.0830000000	76
47.1130000000	88
47.1430000000	95
47.1730000000	85
47.2030000000	95
47.2330000000	95
47.2630000000	105
47.2930000000	105
47.3230000000	96
47.3530000000	94
47.3830000000	108
47.4130000000	77
47.4430000000	102
47.4730000000	91
47.5030000000	120
47.5330000000	95
47.5630000000	95
47.5930000000	97
47.6230000000	96
47.6530000000	95
47.6830000000	92
47.7130000000	102
47.7430000000	94
47.7730000000	98
47.8030000000	94
47.8330000000	99
47.8630000000	106
47.8930000000	110
47.9230000000	90
47.9530000000	111
47.9830000000	92
48.0130000000	95
48.0430000000	119
48.0730000000	99
48.1030000000	126
48.1330000000	119
48.1630000000	163
48.1930000000	203
48.2230000000	249
48.2530000000	266
48.2830000000	358
48.3130000000	333
48.3430000000	321
48.3730000000	275
48.4030000000	233
48.4330000000	176
48.4630000000	148
48.4930000000	128
48.5230000000	100
48.5530000000	99
48.5830000000	101
48.6130000000	106
48.6430000000	94
48.6730000000	83
48.7030000000	103
48.7330000000	104
48.7630000000	73
48.7930000000	65
48.8230000000	74
48.8530000000	82
48.8830000000	95
48.9130000000	97
48.9430000000	88
48.9730000000	71
49.0030000000	75
49.0330000000	95
49.0630000000	92
49.0930000000	105
49.1230000000	104
49.1530000000	75
49.1830000000	75
49.2130000000	87
49.2430000000	76
49.2730000000	100
49.3030000000	83
49.3330000000	77
49.3630000000	85
49.3930000000	82
49.4230000000	82
49.4530000000	90
49.4830000000	87
49.5130000000	86
49.5430000000	80
49.5730000000	96
49.6030000000	98
49.6330000000	77
49.6630000000	74
49.6930000000	69
49.7230000000	94
49.7530000000	83
49.7830000000	73
49.8130000000	76
49.8430000000	98
49.8730000000	91
49.9030000000	62
49.9330000000	70
49.9630000000	78
49.9930000000	81
50.0230000000	68
50.0530000000	78
50.0830000000	81
50.1130000000	69
50.1430000000	88
50.1730000000	86
50.2030000000	84
50.2330000000	77
50.2630000000	75
50.2930000000	85
50.3230000000	81
50.3530000000	69
50.3830000000	72
50.4130000000	69
50.4430000000	72
50.4730000000	74
50.5030000000	82
50.5330000000	79
50.5630000000	84
50.5930000000	66
50.6230000000	76
50.6530000000	78
50.6830000000	64
50.7130000000	75
50.7430000000	72
50.7730000000	79
50.8030000000	72
50.8330000000	83
50.8630000000	77
50.8930000000	69
50.9230000000	57
50.9530000000	58
50.9830000000	74
51.0130000000	86
51.0430000000	69
51.0730000000	71
51.1030000000	75
51.1330000000	77
51.1630000000	61
51.1930000000	72
51.2230000000	76
51.2530000000	56
51.2830000000	72
51.3130000000	75
51.3430000000	67
51.3730000000	69
51.4030000000	72
51.4330000000	78
51.4630000000	69
51.4930000000	63
51.5230000000	62
51.5530000000	66
51.5830000000	74
51.6130000000	73
51.6430000000	81
51.6730000000	68
51.7030000000	62
51.7330000000	72
51.7630000000	74
51.7930000000	70
51.8230000000	72
51.8530000000	66
51.8830000000	65
51.9130000000	63
51.9430000000	65
51.9730000000	68
52.0030000000	57
52.0330000000	70
52.0630000000	72
52.0930000000	58
52.1230000000	79
52.1530000000	63
52.1830000000	70
52.2130000000	55
52.2430000000	63
52.2730000000	59
52.3030000000	67
52.3330000000	65
52.3630000000	58
52.3930000000	74
52.4230000000	63
52.4530000000	62
52.4830000000	65
52.5130000000	54
52.5430000000	69
52.5730000000	75
52.6030000000	66
52.6330000000	67
52.6630000000	71
52.6930000000	55
52.7230000000	67
52.7530000000	73
52.7830000000	65
52.8130000000	63
52.8430000000	70
52.8730000000	64
52.9030000000	54
52.9330000000	71
52.9630000000	67
52.9930000000	65
53.0230000000	69
53.0530000000	75
53.0830000000	60
53.1130000000	75
53.1430000000	70
53.1730000000	68
53.2030000000	64
53.2330000000	62
53.2630000000	67
53.2930000000	62
53.3230000000	57
53.3530000000	70
53.3830000000	53
53.4130000000	58
53.4430000000	84
53.4730000000	58
53.5030000000	66
53.5330000000	53
53.5630000000	69
53.5930000000	67
53.6230000000	63
53.6530000000	74
53.6830000000	78
53.7130000000	72
53.7430000000	60
53.7730000000	70
53.8030000000	70
53.8330000000	65
53.8630000000	61
53.8930000000	67
53.9230000000	50
53.9530000000	69
53.9830000000	62
54.0130000000	72
54.0430000000	59
54.0730000000	46
54.1030000000	54
54.1330000000	59
54.1630000000	49
54.1930000000	62
54.2230000000	66
54.2530000000	54
54.2830000000	64
54.3130000000	54
54.3430000000	61
54.3730000000	58
54.4030000000	63
54.4330000000	59
54.4630000000	81
54.4930000000	59
54.5230000000	67
54.5530000000	82
54.5830000000	60
54.6130000000	73
54.6430000000	66
54.6730000000	66
54.7030000000	53
54.7330000000	68
54.7630000000	56
54.7930000000	49
54.8230000000	62
54.8530000000	71
54.8830000000	66
54.9130000000	64
54.9430000000	57
54.9730000000	58
55.0030000000	57
55.0330000000	63
55.0630000000	66
55.0930000000	54
55.1230000000	76
55.1530000000	57
55.1830000000	62
55.2130000000	54
55.2430000000	69
55.2730000000	61
55.3030000000	59
55.3330000000	60
55.3630000000	70
55.3930000000	62
55.4230000000	56
55.4530000000	56
55.4830000000	67
55.5130000000	59
55.5430000000	61
55.5730000000	59
55.6030000000	55
55.6330000000	67
55.6630000000	68
55.6930000000	54
55.7230000000	53
55.7530000000	83
55.7830000000	76
55.8130000000	48
55.8430000000	56
55.8730000000	49
55.9030000000	58
55.9330000000	60
55.9630000000	50
55.9930000000	51
56.0230000000	49
56.0530000000	54
56.0830000000	64
56.1130000000	66
56.1430000000	56
56.1730000000	59
56.2030000000	48
56.2330000000	69
56.2630000000	66
56.2930000000	56
56.3230000000	55
56.3530000000	54
56.3830000000	53
56.4130000000	67
56.4430000000	51
56.4730000000	49
56.5030000000	55
56.5330000000	52
56.5630000000	63
56.5930000000	62
56.6230000000	55
56.6530000000	59
56.6830000000	62
56.7130000000	58
56.7430000000	58
56.7730000000	50
56.8030000000	59
56.8330000000	52
56.8630000000	56
56.8930000000	54
56.9230000000	66
56.9530000000	58
56.9830000000	57
57.0130000000	60
57.0430000000	48
57.0730000000	50
57.1030000000	57
57.1330000000	63
57.1630000000	61
57.1930000000	58
57.2230000000	53
57.2530000000	55
57.2830000000	63
57.3130000000	57
57.3430000000	56
57.3730000000	58
57.4030000000	50
57.4330000000	51
57.4630000000	51
57.4930000000	46
57.5230000000	61
57.5530000000	57
57.5830000000	41
57.6130000000	43
57.6430000000	44
57.6730000000	42
57.7030000000	55
57.7330000000	44
57.7630000000	62
57.7930000000	57
57.8230000000	71
57.8530000000	58
57.8830000000	55
57.9130000000	61
57.9430000000	50
57.9730000000	47
58.0030000000	46
58.0330000000	47
58.0630000000	63
58.0930000000	58
58.1230000000	58
58.1530000000	44
58.1830000000	45
58.2130000000	58
58.2430000000	61
58.2730000000	48
58.3030000000	52
58.3330000000	54
58.3630000000	55
58.3930000000	40
58.4230000000	52
58.4530000000	64
58.4830000000	51
58.5130000000	59
58.5430000000	54
58.5730000000	53
58.6030000000	69
58.6330000000	52
58.6630000000	54
58.6930000000	52
58.7230000000	63
58.7530000000	52
58.7830000000	51
58.8130000000	62
58.8430000000	53
58.8730000000	49
58.9030000000	63
58.9330000000	58
58.9630000000	66
58.9930000000	40
59.0230000000	55
59.0530000000	41
59.0830000000	57
59.1130000000	60
59.1430000000	47
59.1730000000	44
59.2030000000	49
59.2330000000	53
59.2630000000	55
59.2930000000	51
59.3230000000	59
59.3530000000	50
59.3830000000	55
59.4130000000	60
59.4430000000	46
59.4730000000	65
59.5030000000	49
59.5330000000	50
59.5630000000	52
59.5930000000	44
59.6230000000	54
59.6530000000	54
59.6830000000	50
59.7130000000	50
59.7430000000	54
59.7730000000	55
59.8030000000	47
59.8330000000	59
59.8630000000	44
59.8930000000	47
59.9230000000	65
59.9530000000	53
59.9830000000	63
60.0130000000	55
60.0430000000	65
60.0730000000	76
60.1030000000	68
60.1330000000	83
60.1630000000	56
60.1930000000	72
60.2230000000	58
60.2530000000	56
60.2830000000	52
60.3130000000	51
60.3430000000	61
60.3730000000	52
60.4030000000	60
60.4330000000	53
60.4630000000	44
60.4930000000	64
60.5230000000	51
60.5530000000	52
60.5830000000	51
60.6130000000	52
60.6430000000	59
60.6730000000	44
60.7030000000	55
60.7330000000	40
60.7630000000	52
60.7930000000	50
60.8230000000	55
60.8530000000	49
60.8830000000	46
60.9130000000	49
60.9430000000	62
60.9730000000	49
61.0030000000	60
61.0330000000	52
61.0630000000	42
61.0930000000	47
61.1230000000	50
61.1530000000	48
61.1830000000	39
61.2130000000	50
61.2430000000	47
61.2730000000	49
61.3030000000	45
61.3330000000	40
61.3630000000	53
61.3930000000	56
61.4230000000	56
61.4530000000	58
61.4830000000	48
61.5130000000	61
61.5430000000	46
61.5730000000	43
61.6030000000	46
61.6330000000	66
61.6630000000	60
61.6930000000	46
61.7230000000	47
61.7530000000	36
61.7830000000	46
61.8130000000	58
61.8430000000	57
61.8730000000	46
61.9030000000	57
61.9330000000	51
61.9630000000	50
61.9930000000	46
62.0230000000	51
62.0530000000	58
62.0830000000	48
62.1130000000	46
62.1430000000	53
62.1730000000	53
62.2030000000	55
62.2330000000	51
62.2630000000	58
62.2930000000	50
62.3230000000	49
62.3530000000	50
62.3830000000	48
62.4130000000	48
62.4430000000	50
62.4730000000	51
62.5030000000	52
62.5330000000	60
62.5630000000	50
62.5930000000	59
62.6230000000	65
62.6530000000	55
62.6830000000	46
62.7130000000	49
62.7430000000	52
62.7730000000	49
62.8030000000	50
62.8330000000	47
62.8630000000	52
62.8930000000	50
62.9230000000	46
62.9530000000	42
62.9830000000	38
63.0130000000	55
63.0430000000	45
63.0730000000	49
63.1030000000	51
63.1330000000	51
63.1630000000	59
63.1930000000	57
63.2230000000	50
63.2530000000	52
63.2830000000	55
63.3130000000	55
63.3430000000	53
63.3730000000	48
63.4030000000	45
63.4330000000	50
63.4630000000	54
63.4930000000	59
63.5230000000	58
63.5530000000	51
63.5830000000	44
63.6130000000	51
63.6430000000	52
63.6730000000	40
63.7030000000	43
63.7330000000	46
63.7630000000	58
63.7930000000	42
63.8230000000	41
63.8530000000	51
63.8830000000	37
63.9130000000	50
63.9430000000	50
63.9730000000	54
64.0030000000	50
64.0330000000	55
64.0630000000	45
64.0930000000	53
64.1230000000	50
64.1530000000	54
64.1830000000	54
64.2130000000	52
64.2430000000	56
64.2730000000	50
64.3030000000	52
64.3330000000	53
64.3630000000	50
64.3930000000	48
64.4230000000	51
64.4530000000	55
64.4830000000	56
64.5130000000	44
64.5430000000	40
64.5730000000	43
64.6030000000	50
64.6330000000	49
64.6630000000	52
64.6930000000	48
64.7230000000	44
64.7530000000	49
64.7830000000	45
64.8130000000	52
64.8430000000	70
64.8730000000	31
64.9030000000	53
64.9330000000	34
64.9630000000	40
64.9930000000	54
65.0230000000	46
65.0530000000	51
65.0830000000	50
65.1130000000	48
65.1430000000	52
65.1730000000	48
65.2030000000	45
65.2330000000	54
65.2630000000	54
65.2930000000	54
65.3230000000	61
65.3530000000	44
65.3830000000	59
65.4130000000	52
65.4430000000	45
65.4730000000	56
65.5030000000	53
65.5330000000	56
65.5630000000	51
65.5930000000	41
65.6230000000	57
65.6530000000	41
65.6830000000	47
65.7130000000	57
65.7430000000	49
65.7730000000	47
65.8030000000	48
65.8330000000	37
65.8630000000	47
65.8930000000	55
65.9230000000	36
65.9530000000	39
65.9830000000	63
66.0130000000	52
66.0430000000	44
66.0730000000	48
66.1030000000	50
66.1330000000	55
66.1630000000	48
66.1930000000	55
66.2230000000	41
66.2530000000	48
66.2830000000	52
66.3130000000	50
66.3430000000	62
66.3730000000	43
66.4030000000	34
66.4330000000	48
66.4630000000	44
66.4930000000	54
66.5230000000	56
66.5530000000	52
66.5830000000	53
66.6130000000	48
66.6430000000	37
66.6730000000	44
66.7030000000	48
66.7330000000	45
66.7630000000	48
66.7930000000	64
66.8230000000	47
66.8530000000	46
66.8830000000	43
66.9130000000	39
66.9430000000	42
66.9730000000	51
67.0030000000	50
67.0330000000	39
67.0630000000	60
67.0930000000	48
67.1230000000	48
67.1530000000	54
67.1830000000	53
67.2130000000	50
67.2430000000	49
67.2730000000	54
67.3030000000	49
67.3330000000	44
67.3630000000	36
67.3930000000	39
67.4230000000	50
67.4530000000	48
67.4830000000	49
67.5130000000	45
67.5430000000	58
67.5730000000	50
67.6030000000	46
67.6330000000	38
67.6630000000	36
67.6930000000	46
67.7230000000	47
67.7530000000	50
67.7830000000	42
67.8130000000	44
67.8430000000	55
67.8730000000	49
67.9030000000	36
67.9330000000	40
67.9630000000	48
67.9930000000	42
68.0230000000	44
68.0530000000	36
68.0830000000	41
68.1130000000	48
68.1430000000	55
68.1730000000	46
68.2030000000	52
68.2330000000	45
68.2630000000	47
68.2930000000	46
68.3230000000	52
68.3530000000	42
68.3830000000	51
68.4130000000	47
68.4430000000	43
68.4730000000	42
68.5030000000	45
68.5330000000	47
68.5630000000	33
68.5930000000	56
68.6230000000	49
68.6530000000	57
68.6830000000	46
68.7130000000	61
68.7430000000	44
68.7730000000	45
68.8030000000	55
68.8330000000	38
68.8630000000	43
68.8930000000	50
68.9230000000	56
68.9530000000	48
68.9830000000	40
69.0130000000	48
69.0430000000	50
69.0730000000	35
69.1030000000	60
69.1330000000	55
69.1630000000	44
69.1930000000	46
69.2230000000	44
69.2530000000	38
69.2830000000	40
69.3130000000	39
69.3430000000	41
69.3730000000	43
69.4030000000	45
69.4330000000	40
69.4630000000	40
69.4930000000	44
69.5230000000	46
69.5530000000	34
69.5830000000	37
69.6130000000	47
69.6430000000	47
69.6730000000	47
69.7030000000	51
69.7330000000	46
69.7630000000	49
69.7930000000	39
69.8230000000	46
69.8530000000	49
69.8830000000	54
69.9130000000	41
69.9430000000	34
69.9730000000	39
70.0030000000	51
70.0330000000	45
70.0630000000	38
70.0930000000	40
70.1230000000	58
70.1530000000	36
70.1830000000	50
70.2130000000	47
70.2430000000	34
70.2730000000	46
70.3030000000	40
70.3330000000	45
70.3630000000	47
70.3930000000	45
70.4230000000	35
70.4530000000	52
70.4830000000	41
70.5130000000	42
70.5430000000	61
70.5730000000	56
70.6030000000	54
70.6330000000	46
70.6630000000	49
70.6930000000	43
70.7230000000	42
70.7530000000	58
70.7830000000	55
70.8130000000	44
70.8430000000	52
70.8730000000	47
70.9030000000	53
70.9330000000	43
70.9630000000	46
70.9930000000	46
71.0230000000	51
71.0530000000	44
71.0830000000	46
71.1130000000	54
71.1430000000	45
71.1730000000	39
71.2030000000	46
71.2330000000	45
71.2630000000	41
71.2930000000	36
71.3230000000	37
71.3530000000	45
71.3830000000	38
71.4130000000	50
71.4430000000	44
71.4730000000	44
71.5030000000	43
71.5330000000	41
71.5630000000	57
71.5930000000	44
71.6230000000	52
71.6530000000	57
71.6830000000	49
71.7130000000	37
71.7430000000	43
71.7730000000	37
71.8030000000	45
71.8330000000	52
71.8630000000	56
71.8930000000	41
71.9230000000	45
71.9530000000	41
71.9830000000	52
72.0130000000	47
72.0430000000	40
72.0730000000	54
72.1030000000	32
72.1330000000	43
72.1630000000	41
72.1930000000	35
72.2230000000	45
72.2530000000	36
72.2830000000	53
72.3130000000	39
72.3430000000	50
72.3730000000	41
72.4030000000	38
72.4330000000	38
72.4630000000	37
72.4930000000	40
72.5230000000	34
72.5530000000	40
72.5830000000	32
72.6130000000	56
72.6430000000	45
72.6730000000	38
72.7030000000	45
72.7330000000	40
72.7630000000	54
72.7930000000	57
72.8230000000	55
72.8530000000	49
72.8830000000	49
72.9130000000	48
72.9430000000	40
72.9730000000	44
73.0030000000	44
73.0330000000	47
73.0630000000	53
73.0930000000	53
73.1230000000	50
73.1530000000	29
73.1830000000	51
73.2130000000	52
73.2430000000	49
73.2730000000	46
73.3030000000	45
73.3330000000	50
73.3630000000	52
73.3930000000	48
73.4230000000	31
73.4530000000	32
73.4830000000	47
73.5130000000	57
73.5430000000	51
73.5730000000	52
73.6030000000	45
73.6330000000	54
73.6630000000	53
73.6930000000	45
73.7230000000	54
73.7530000000	48
73.7830000000	37
73.8130000000	41
73.8430000000	44
73.8730000000	43
73.9030000000	39
73.9330000000	47
73.9630000000	39
73.9930000000	52
74.0230000000	44
74.0530000000	58
74.0830000000	43
74.1130000000	55
74.1430000000	42
74.1730000000	42
74.2030000000	45
74.2330000000	42
74.2630000000	43
74.2930000000	57
74.3230000000	42
74.3530000000	54
74.3830000000	58
74.4130000000	52
74.4430000000	39
74.4730000000	41
74.5030000000	43
74.5330000000	50
74.5630000000	47
74.5930000000	40
74.6230000000	38
74.6530000000	35
74.6830000000	38
74.7130000000	40
74.7430000000	39
74.7730000000	37
74.8030000000	36
74.8330000000	59
74.8630000000	47
74.8930000000	45
74.9230000000	45
74.9530000000	44
74.9830000000	46
75.0130000000	55
75.0430000000	50
75.0730000000	55
75.1030000000	48
75.1330000000	46
75.1630000000	40
75.1930000000	48
75.2230000000	39
75.2530000000	33
75.2830000000	38
75.3130000000	54
75.3430000000	53
75.3730000000	39
75.4030000000	40
75.4330000000	42
75.4630000000	31
75.4930000000	46
75.5230000000	41
75.5530000000	47
75.5830000000	55
75.6130000000	45
75.6430000000	49
75.6730000000	70
75.7030000000	49
75.7330000000	59
75.7630000000	67
75.7930000000	64
75.8230000000	51
75.8530000000	47
75.8830000000	54
75.9130000000	47
75.9430000000	52
75.9730000000	64
76.0030000000	52
76.0330000000	47
76.0630000000	59
76.0930000000	53
76.1230000000	39
76.1530000000	52
76.1830000000	51
76.2130000000	42
76.2430000000	50
76.2730000000	52
76.3030000000	37
76.3330000000	41
76.3630000000	55
76.3930000000	46
76.4230000000	36
76.4530000000	46
76.4830000000	46
76.5130000000	37
76.5430000000	47
76.5730000000	48
76.6030000000	44
76.6330000000	48
76.6630000000	43
76.6930000000	39
76.7230000000	60
76.7530000000	42
76.7830000000	50
76.8130000000	46
76.8430000000	41
76.8730000000	40
76.9030000000	37
76.9330000000	33
76.9630000000	42
76.9930000000	35
77.0230000000	31
77.0530000000	47
77.0830000000	47
77.1130000000	42
77.1430000000	40
77.1730000000	34
77.2030000000	31
77.2330000000	38
77.2630000000	32
77.2930000000	55
77.3230000000	41
77.3530000000	45
77.3830000000	41
77.4130000000	56
77.4430000000	48
77.4730000000	43
77.5030000000	40
77.5330000000	56
77.5630000000	50
77.5930000000	40
77.6230000000	43
77.6530000000	45
77.6830000000	39
77.7130000000	41
77.7430000000	44
77.7730000000	50
77.8030000000	40
77.8330000000	50
77.8630000000	36
77.8930000000	38
77.9230000000	37
77.9530000000	44
77.9830000000	44
78.0130000000	41
78.0430000000	46
78.0730000000	50
78.1030000000	44
78.1330000000	46
78.1630000000	44
78.1930000000	41
78.2230000000	43
78.2530000000	42
78.2830000000	49
78.3130000000	35
78.3430000000	47
78.3730000000	44
78.4030000000	43
78.4330000000	46
78.4630000000	41
78.4930000000	32
78.5230000000	46
78.5530000000	44
78.5830000000	58
78.6130000000	35
78.6430000000	46
78.6730000000	42
78.7030000000	39
78.7330000000	39
78.7630000000	37
78.7930000000	37
78.8230000000	48
78.8530000000	39
78.8830000000	46
78.9130000000	41
78.9430000000	33
78.9730000000	40
79.0030000000	43
79.0330000000	51
79.0630000000	47
79.0930000000	50
79.1230000000	57
79.1530000000	55
79.1830000000	45
79.2130000000	46
79.2430000000	35
79.2730000000	45
79.3030000000	47
79.3330000000	41
79.3630000000	45
79.3930000000	42
79.4230000000	54
79.4530000000	38
79.4830000000	43
79.5130000000	40
79.5430000000	44
79.5730000000	46
79.6030000000	45
79.6330000000	42
79.6630000000	36
79.6930000000	42
79.7230000000	32
79.7530000000	57
79.7830000000	39
79.8130000000	27
79.8430000000	50
79.8730000000	45
79.9030000000	35
79.9330000000	42
79.9630000000	38
79.9930000000	46
80.0230000000	46
80.0530000000	41
80.0830000000	44
80.1130000000	42
80.1430000000	55
80.1730000000	51
80.2030000000	44
80.2330000000	41
80.2630000000	47
80.2930000000	42
80.3230000000	41
80.3530000000	32
80.3830000000	38
80.4130000000	44
80.4430000000	44
80.4730000000	47
80.5030000000	41
80.5330000000	38
80.5630000000	48
80.5930000000	50
80.6230000000	47
80.6530000000	61
80.6830000000	56
80.7130000000	45
80.7430000000	45
80.7730000000	38
80.8030000000	48
80.8330000000	38
80.8630000000	63
80.8930000000	39
80.9230000000	47
80.9530000000	38
80.9830000000	53
81.0130000000	38
81.0430000000	41
81.0730000000	36
81.1030000000	44
81.1330000000	34
81.1630000000	29
81.1930000000	39
81.2230000000	37
81.2530000000	39
81.2830000000	34
81.3130000000	42
81.3430000000	43
81.3730000000	35
81.4030000000	33
81.4330000000	54
81.4630000000	30
81.4930000000	50
81.5230000000	42
81.5530000000	43
81.5830000000	39
81.6130000000	39
81.6430000000	43
81.6730000000	34
81.7030000000	39
81.7330000000	33
81.7630000000	39
81.7930000000	52
81.8230000000	38
81.8530000000	34
81.8830000000	49
81.9130000000	33
81.9430000000	41
81.9730000000	48
82.0030000000	39
82.0330000000	49
82.0630000000	40
82.0930000000	38
82.1230000000	44
82.1530000000	55
82.1830000000	48
82.2130000000	53
82.2430000000	38
82.2730000000	43
82.3030000000	37
82.3330000000	38
82.3630000000	49
82.3930000000	41
82.4230000000	39
82.4530000000	45
82.4830000000	39
82.5130000000	43
82.5430000000	46
82.5730000000	45
82.6030000000	48
82.6330000000	42
82.6630000000	42
82.6930000000	42
82.7230000000	35
82.7530000000	35
82.7830000000	30
82.8130000000	34
82.8430000000	31
82.8730000000	32
82.9030000000	53
82.9330000000	44
82.9630000000	41
82.9930000000	41
83.0230000000	44
83.0530000000	30
83.0830000000	43
83.1130000000	49
83.1430000000	40
83.1730000000	49
83.2030000000	40
83.2330000000	51
83.2630000000	41
83.2930000000	44
83.3230000000	45
83.3530000000	43
83.3830000000	45
83.4130000000	44
83.4430000000	39
83.4730000000	43
83.5030000000	36
83.5330000000	42
83.5630000000	38
83.5930000000	43
83.6230000000	35
83.6530000000	39
83.6830000000	36
83.7130000000	36
83.7430000000	43
83.7730000000	37
83.8030000000	43
83.8330000000	40
83.8630000000	46
83.8930000000	47
83.9230000000	42
83.9530000000	41
83.9830000000	54
84.0130000000	37
84.0430000000	49
84.0730000000	42
84.1030000000	44
84.1330000000	38
84.1630000000	42
84.1930000000	43
84.2230000000	45
84.2530000000	47
84.2830000000	43
84.3130000000	40
84.3430000000	43
84.3730000000	41
84.4030000000	30
84.4330000000	44
84.4630000000	36
84.4930000000	38
84.5230000000	28
84.5530000000	50
84.5830000000	53
84.6130000000	41
84.6430000000	33
84.6730000000	33
84.7030000000	44
84.7330000000	44
84.7630000000	49
84.7930000000	36
84.8230000000	49
84.8530000000	36
84.8830000000	38
84.9130000000	37
84.9430000000	38
84.9730000000	47
85.0030000000	43
85.0330000000	36
85.0630000000	37
85.0930000000	37
85.1230000000	24
85.1530000000	33
85.1830000000	42
85.2130000000	41
85.2430000000	41
85.2730000000	37
85.3030000000	32
85.3330000000	46
85.3630000000	47
85.3930000000	34
85.4230000000	36
85.4530000000	39
85.4830000000	37
85.5130000000	23
85.5430000000	46
85.5730000000	52
85.6030000000	29
85.6330000000	41
85.6630000000	43
85.6930000000	37
85.7230000000	38
85.7530000000	37
85.7830000000	53
85.8130000000	41
85.8430000000	40
85.8730000000	40
85.9030000000	41
85.9330000000	43
85.9630000000	47
85.9930000000	43
86.0230000000	37
86.0530000000	38
86.0830000000	35
86.1130000000	45
86.1430000000	40
86.1730000000	46
86.2030000000	36
86.2330000000	32
86.2630000000	36
86.2930000000	40
86.3230000000	39
86.3530000000	43
86.3830000000	42
86.4130000000	38
86.4430000000	37
86.4730000000	31
86.5030000000	35
86.5330000000	46
86.5630000000	39
86.5930000000	47
86.6230000000	43
86.6530000000	43
86.6830000000	33
86.7130000000	35
86.7430000000	38
86.7730000000	46
86.8030000000	44
86.8330000000	44
86.8630000000	45
86.8930000000	49
86.9230000000	42
86.9530000000	41
86.9830000000	40
87.0130000000	33
87.0430000000	36
87.0730000000	41
87.1030000000	42
87.1330000000	30
87.1630000000	32
87.1930000000	43
87.2230000000	38
87.2530000000	39
87.2830000000	41
87.3130000000	35
87.3430000000	52
87.3730000000	43
87.4030000000	36
87.4330000000	47
87.4630000000	36
87.4930000000	39
87.5230000000	48
87.5530000000	38
87.5830000000	35
87.6130000000	38
87.6430000000	29
87.6730000000	45
87.7030000000	41
87.7330000000	42
87.7630000000	43
87.7930000000	42
87.8230000000	40
87.8530000000	29
87.8830000000	39
87.9130000000	44
87.9430000000	59
87.9730000000	34
88.0030000000	47
88.0330000000	36
88.0630000000	31
88.0930000000	32
88.1230000000	35
88.1530000000	33
88.1830000000	42
88.2130000000	32
88.2430000000	29
88.2730000000	43
88.3030000000	34
88.3330000000	32
88.3630000000	39
88.3930000000	34
88.4230000000	43
88.4530000000	40
88.4830000000	56
88.5130000000	38
88.5430000000	24
88.5730000000	46
88.6030000000	34
88.6330000000	46
88.6630000000	45
88.6930000000	49
88.7230000000	31
88.7530000000	39
88.7830000000	41
88.8130000000	40
88.8430000000	30
88.8730000000	47
88.9030000000	39
88.9330000000	36
88.9630000000	40
88.9930000000	39
89.0230000000	38
89.0530000000	35
89.0830000000	44
89.1130000000	41
89.1430000000	33
89.1730000000	48
89.2030000000	48
89.2330000000	43
89.2630000000	44
89.2930000000	35
89.3230000000	33
89.3530000000	40
89.3830000000	46
89.4130000000	48
89.4430000000	39
89.4730000000	40
89.5030000000	30
89.5330000000	31
89.5630000000	38
89.5930000000	38
89.6230000000	37
89.6530000000	52
89.6830000000	45
89.7130000000	27
89.7430000000	31
89.7730000000	33
89.8030000000	27
89.8330000000	37
89.8630000000	46
89.8930000000	33
89.9230000000	46
89.9530000000	48
89.9830000000	48
90.0130000000	40
90.0430000000	36
90.0730000000	43
90.1030000000	38
90.1330000000	41
90.1630000000	50
90.1930000000	31
90.2230000000	36
90.2530000000	35
90.2830000000	42
90.3130000000	33
90.3430000000	31
90.3730000000	33
90.4030000000	43
90.4330000000	50
90.4630000000	29
90.4930000000	39
90.5230000000	48
90.5530000000	42
90.5830000000	43
90.6130000000	38
90.6430000000	32
90.6730000000	43
90.7030000000	35
90.7330000000	42
90.7630000000	49
90.7930000000	42
90.8230000000	34
90.8530000000	48
90.8830000000	35
90.9130000000	36
90.9430000000	47
90.9730000000	46
91.0030000000	39
91.0330000000	46
91.0630000000	38
91.0930000000	35
91.1230000000	35
91.1530000000	38
91.1830000000	28
91.2130000000	41
91.2430000000	47
91.2730000000	42
91.3030000000	36
91.3330000000	50
91.3630000000	38
91.3930000000	33
91.4230000000	46
91.4530000000	41
91.4830000000	36
91.5130000000	40
91.5430000000	38
91.5730000000	33
91.6030000000	44
91.6330000000	49
91.6630000000	43
91.6930000000	43
91.7230000000	39
91.7530000000	29
91.7830000000	29
91.8130000000	34
91.8430000000	41
91.8730000000	45
91.9030000000	41
91.9330000000	61
91.9630000000	44
91.9930000000	42
92.0230000000	33
92.0530000000	46
92.0830000000	41
92.1130000000	35
92.1430000000	37
92.1730000000	49
92.2030000000	34
92.2330000000	34
92.2630000000	26
92.2930000000	27
92.3230000000	41
92.3530000000	36
92.3830000000	43
92.4130000000	36
92.4430000000	43
92.4730000000	39
92.5030000000	33
92.5330000000	43
92.5630000000	38
92.5930000000	42
92.6230000000	41
92.6530000000	35
92.6830000000	37
92.7130000000	34
92.7430000000	46
92.7730000000	48
92.8030000000	34
92.8330000000	34
92.8630000000	39
92.8930000000	32
92.9230000000	33
92.9530000000	50
92.9830000000	51
93.0130000000	37
93.0430000000	30
93.0730000000	39
93.1030000000	45
93.1330000000	38
93.1630000000	30
93.1930000000	36
93.2230000000	48
93.2530000000	43
93.2830000000	38
93.3130000000	49
93.3430000000	32
93.3730000000	34
93.4030000000	43
93.4330000000	37
93.4630000000	47
93.4930000000	40
93.5230000000	48
93.5530000000	38
93.5830000000	56
93.6130000000	41
93.6430000000	35
93.6730000000	48
93.7030000000	43
93.7330000000	57
93.7630000000	43
93.7930000000	52
93.8230000000	44
93.8530000000	37
93.8830000000	42
93.9130000000	48
93.9430000000	34
93.9730000000	46
94.0030000000	41
94.0330000000	45
94.0630000000	46
94.0930000000	55
94.1230000000	44
94.1530000000	36
94.1830000000	50
94.2130000000	31
94.2430000000	50
94.2730000000	34
94.3030000000	41
94.3330000000	42
94.3630000000	48
94.3930000000	42
94.4230000000	48
94.4530000000	54
94.4830000000	56
94.5130000000	43
94.5430000000	37
94.5730000000	36
94.6030000000	35
94.6330000000	40
94.6630000000	42
94.6930000000	41
94.7230000000	47
94.7530000000	43
94.7830000000	32
94.8130000000	43
94.8430000000	43
94.8730000000	45
94.9030000000	37
94.9330000000	39
94.9630000000	48
94.9930000000	39
95.0230000000	46
95.0530000000	42
95.0830000000	40
95.1130000000	49
95.1430000000	35
95.1730000000	48
95.2030000000	48
95.2330000000	36
95.2630000000	40
95.2930000000	40
95.3230000000	39
95.3530000000	45
95.3830000000	53
95.4130000000	50
95.4430000000	52
95.4730000000	47
95.5030000000	31
95.5330000000	35
95.5630000000	44
95.5930000000	36
95.6230000000	41
95.6530000000	45
95.6830000000	43
95.7130000000	45
95.7430000000	37
95.7730000000	54
95.8030000000	42
95.8330000000	34
95.8630000000	44
95.8930000000	47
95.9230000000	46
95.9530000000	46
95.9830000000	38
96.0130000000	37
96.0430000000	35
96.0730000000	38
96.1030000000	41
96.1330000000	36
96.1630000000	50
96.1930000000	44
96.2230000000	50
96.2530000000	43
96.2830000000	48
96.3130000000	37
96.3430000000	41
96.3730000000	48
96.4030000000	44
96.4330000000	42
96.4630000000	34
96.4930000000	35
96.5230000000	40
96.5530000000	53
96.5830000000	55
96.6130000000	53
96.6430000000	51
96.6730000000	46
96.7030000000	57
96.7330000000	37
96.7630000000	40
96.7930000000	42
96.8230000000	39
96.8530000000	30
96.8830000000	33
96.9130000000	40
96.9430000000	41
96.9730000000	44
97.0030000000	50
97.0330000000	39
97.0630000000	43
97.0930000000	34
97.1230000000	32
97.1530000000	40
97.1830000000	43
97.2130000000	50
97.2430000000	43
97.2730000000	45
97.3030000000	39
97.3330000000	34
97.3630000000	38
97.3930000000	38
97.4230000000	35
97.4530000000	37
97.4830000000	44
97.5130000000	41
97.5430000000	33
97.5730000000	38
97.6030000000	38
97.6330000000	48
97.6630000000	36
97.6930000000	37
97.7230000000	36
97.7530000000	51
97.7830000000	41
97.8130000000	53
97.8430000000	40
97.8730000000	49
97.9030000000	38
97.9330000000	40
97.9630000000	29
97.9930000000	37
98.0230000000	38
98.0530000000	37
98.0830000000	41
98.1130000000	50
98.1430000000	48
98.1730000000	46
98.2030000000	24
98.2330000000	42
98.2630000000	36
98.2930000000	42
98.3230000000	51
98.3530000000	40
98.3830000000	36
98.4130000000	47
98.4430000000	37
98.4730000000	41
98.5030000000	42
98.5330000000	39
98.5630000000	39
98.5930000000	39
98.6230000000	38
98.6530000000	38
98.6830000000	40
98.7130000000	37
98.7430000000	39
98.7730000000	44
98.8030000000	44
98.8330000000	43
98.8630000000	42
98.8930000000	42
98.9230000000	37
98.9530000000	35
98.9830000000	46
99.0130000000	42
99.0430000000	29
99.0730000000	33
99.1030000000	42
99.1330000000	45
99.1630000000	44
99.1930000000	37
99.2230000000	45
99.2530000000	33
99.2830000000	39
99.3130000000	39
99.3430000000	39
99.3730000000	32
99.4030000000	48
99.4330000000	39
99.4630000000	24
99.4930000000	40
99.5230000000	29
99.5530000000	56
99.5830000000	41
99.6130000000	47
99.6430000000	55
99.6730000000	40
99.7030000000	53
99.7330000000	31
99.7630000000	41
99.7930000000	45
99.8230000000	46
99.8530000000	42
99.8830000000	40
99.9130000000	41
99.9430000000	38
99.9730000000	31
100.0030000000	29
100.0330000000	34
100.0630000000	35
100.0930000000	33
100.1230000000	43
100.1530000000	42
100.1830000000	36
100.2130000000	41
100.2430000000	40
100.2730000000	41
100.3030000000	41
100.3330000000	44
100.3630000000	41
100.3930000000	35
100.4230000000	31
100.4530000000	49
100.4830000000	36
100.5130000000	32
100.5430000000	34
100.5730000000	34
100.6030000000	43
100.6330000000	35
100.6630000000	44
100.6930000000	32
100.7230000000	41
100.7530000000	27
100.7830000000	43
100.8130000000	45
100.8430000000	41
100.8730000000	23
100.9030000000	48
100.9330000000	32
100.9630000000	30
100.9930000000	39
101.0230000000	31
101.0530000000	42
101.0830000000	50
101.1130000000	46
101.1430000000	44
101.1730000000	48
101.2030000000	42
101.2330000000	38
101.2630000000	39
101.2930000000	32
101.3230000000	37
101.3530000000	41
101.3830000000	44
101.4130000000	36
101.4430000000	41
101.4730000000	45
101.5030000000	41
101.5330000000	33
101.5630000000	40
101.5930000000	45
101.6230000000	37
101.6530000000	38
101.6830000000	35
101.7130000000	24
101.7430000000	34
101.7730000000	35
101.8030000000	29
101.8330000000	35
101.8630000000	36
101.8930000000	42
101.9230000000	33
101.9530000000	37
101.9830000000	41
102.0130000000	31
102.0430000000	39
102.0730000000	44
102.1030000000	45
102.1330000000	33
102.1630000000	42
102.1930000000	38
102.2230000000	44
102.2530000000	31
102.2830000000	33
102.3130000000	42
102.3430000000	39
102.3730000000	51
102.4030000000	37
102.4330000000	46
102.4630000000	43
102.4930000000	33
102.5230000000	45
102.5530000000	43
102.5830000000	34
102.6130000000	43
102.6430000000	43
102.6730000000	39
102.7030000000	38
102.7330000000	25
102.7630000000	38
102.7930000000	43
102.8230000000	50
102.8530000000	45
102.8830000000	39
102.9130000000	39
102.9430000000	44
102.9730000000	33
103.0030000000	38
103.0330000000	26
103.0630000000	30
103.0930000000	30
103.1230000000	37
103.1530000000	48
103.1830000000	46
103.2130000000	41
103.2430000000	32
103.2730000000	36
103.3030000000	44
103.3330000000	31
103.3630000000	38
103.3930000000	29
103.4230000000	36
103.4530000000	43
103.4830000000	41
103.5130000000	40
103.5430000000	40
103.5730000000	36
103.6030000000	28
103.6330000000	46
103.6630000000	45
103.6930000000	34
103.7230000000	47
103.7530000000	38
103.7830000000	39
103.8130000000	55
103.8430000000	41
103.8730000000	46
103.9030000000	44
103.9330000000	38
103.9630000000	45
103.9930000000	43
104.0230000000	44
104.0530000000	34
104.0830000000	34
104.1130000000	32
104.1430000000	41
104.1730000000	37
104.2030000000	34
104.2330000000	29
104.2630000000	44
104.2930000000	48
104.3230000000	45
104.3530000000	37
104.3830000000	42
104.4130000000	47
104.4430000000	42
104.4730000000	32
104.5030000000	50
104.5330000000	33
104.5630000000	45
104.5930000000	35
104.6230000000	40
104.6530000000	41
104.6830000000	43
104.7130000000	33
104.7430000000	44
104.7730000000	52
104.8030000000	47
104.8330000000	30
104.8630000000	39
104.8930000000	48
104.9230000000	46
104.9530000000	44
104.9830000000	43
105.0130000000	43
105.0430000000	42
105.0730000000	36
105.1030000000	35
105.1330000000	37
105.1630000000	33
105.1930000000	35
105.2230000000	38
105.2530000000	40
105.2830000000	50
105.3130000000	44
105.3430000000	47
105.3730000000	41
105.4030000000	45
105.4330000000	43
105.4630000000	50
105.4930000000	37
105.5230000000	35
105.5530000000	33
105.5830000000	39
105.6130000000	35
105.6430000000	35
105.6730000000	38
105.7030000000	36
105.7330000000	26
105.7630000000	35
105.7930000000	37
105.8230000000	36
105.8530000000	39
105.8830000000	36
105.9130000000	39
105.9430000000	34
105.9730000000	38
106.0030000000	34
106.0330000000	41
106.0630000000	47
106.0930000000	44
106.1230000000	54
106.1530000000	40
106.1830000000	37
106.2130000000	46
106.2430000000	39
106.2730000000	36
106.3030000000	36
106.3330000000	41
106.3630000000	43
106.3930000000	45
106.4230000000	41
106.4530000000	29
106.4830000000	39
106.5130000000	38
106.5430000000	39
106.5730000000	42
106.6030000000	40
106.6330000000	39
106.6630000000	34
106.6930000000	46
106.7230000000	34
106.7530000000	27
106.7830000000	46
106.8130000000	46
106.8430000000	42
106.8730000000	42
106.9030000000	34
106.9330000000	39
106.9630000000	32
106.9930000000	46
107.0230000000	39
107.0530000000	40
107.0830000000	33
107.1130000000	33
107.1430000000	34
107.1730000000	41
107.2030000000	35
107.2330000000	48
107.2630000000	47
107.2930000000	41
107.3230000000	42
107.3530000000	32
107.3830000000	43
107.4130000000	40
107.4430000000	43
107.4730000000	35
107.5030000000	40
107.5330000000	37
107.5630000000	41
107.5930000000	50
107.6230000000	47
107.6530000000	37
107.6830000000	42
107.7130000000	37
107.7430000000	35
107.7730000000	44
107.8030000000	36
107.8330000000	32
107.8630000000	37
107.8930000000	41
107.9230000000	42
107.9530000000	41
107.9830000000	41
108.0130000000	35
108.0430000000	43
108.0730000000	36
108.1030000000	47
108.1330000000	37
108.1630000000	40
108.1930000000	34
108.2230000000	35
108.2530000000	42
108.2830000000	37
108.3130000000	36
108.3430000000	34
108.3730000000	34
108.4030000000	35
108.4330000000	29
108.4630000000	35
108.4930000000	44
108.5230000000	31
108.5530000000	27
108.5830000000	36
108.6130000000	30
108.6430000000	42
108.6730000000	36
108.7030000000	44
108.7330000000	45
108.7630000000	38
108.7930000000	45
108.8230000000	34
108.8530000000	43
108.8830000000	40
108.9130000000	35
108.9430000000	28
108.9730000000	44
109.0030000000	46
109.0330000000	36
109.0630000000	36
109.0930000000	36
109.1230000000	42
109.1530000000	41
109.1830000000	47
109.2130000000	27
109.2430000000	34
109.2730000000	42
109.3030000000	32
109.3330000000	29
109.3630000000	35
109.3930000000	37
109.4230000000	33
109.4530000000	36
109.4830000000	41
109.5130000000	27
109.5430000000	36
109.5730000000	28
109.6030000000	35
109.6330000000	38
109.6630000000	40
109.6930000000	39
109.7230000000	33
109.7530000000	47
109.7830000000	45
109.8130000000	44
109.8430000000	39
109.8730000000	39
109.9030000000	35
109.9330000000	35
109.9630000000	34
109.9930000000	32
110.0230000000	32
110.0530000000	39
110.0830000000	38
110.1130000000	55
110.1430000000	39
110.1730000000	35
110.2030000000	54
110.2330000000	47
110.2630000000	37
110.2930000000	34
110.3230000000	39
110.3530000000	47
110.3830000000	41
110.4130000000	37
110.4430000000	37
110.4730000000	33
110.5030000000	37
110.5330000000	37
110.5630000000	43
110.5930000000	44
110.6230000000	31
110.6530000000	38
110.6830000000	36
110.7130000000	38
110.7430000000	43
110.7730000000	38
110.8030000000	50
110.8330000000	39
110.8630000000	31
110.8930000000	40
110.9230000000	44
110.9530000000	38
110.9830000000	31
111.0130000000	31
111.0430000000	35
111.0730000000	36
111.1030000000	39
111.1330000000	39
111.1630000000	43
111.1930000000	40
111.2230000000	30
111.2530000000	39
111.2830000000	41
111.3130000000	36
111.3430000000	39
111.3730000000	43
111.4030000000	28
111.4330000000	40
111.4630000000	41
111.4930000000	43
111.5230000000	44
111.5530000000	25
111.5830000000	35
111.6130000000	51
111.6430000000	33
111.6730000000	37
111.7030000000	38
111.7330000000	38
111.7630000000	42
111.7930000000	38
111.8230000000	41
111.8530000000	36
111.8830000000	40
111.9130000000	36
111.9430000000	41
111.9730000000	39
112.0030000000	58
112.0330000000	32
112.0630000000	28
112.0930000000	36
112.1230000000	37
112.1530000000	39
112.1830000000	48
112.2130000000	30
112.2430000000	38
112.2730000000	30
112.3030000000	42
112.3330000000	44
112.3630000000	39
112.3930000000	33
112.4230000000	38
112.4530000000	37
112.4830000000	36
112.5130000000	34
112.5430000000	34
112.5730000000	50
112.6030000000	53
112.6330000000	43
112.6630000000	35
112.6930000000	40
112.7230000000	45
112.7530000000	45
112.7830000000	46
112.8130000000	43
112.8430000000	31
112.8730000000	34
112.9030000000	32
112.9330000000	39
112.9630000000	41
112.9930000000	42
113.0230000000	34
113.0530000000	41
113.0830000000	39
113.1130000000	41
113.1430000000	34
113.1730000000	39
113.2030000000	32
113.2330000000	32
113.2630000000	38
113.2930000000	38
113.3230000000	33
113.3530000000	44
113.3830000000	39
113.4130000000	38
113.4430000000	51
113.4730000000	47
113.5030000000	35
113.5330000000	39
113.5630000000	48
113.5930000000	40
113.6230000000	43
113.6530000000	36
113.6830000000	37
113.7130000000	40
113.7430000000	41
113.7730000000	35
113.8030000000	38
113.8330000000	41
113.8630000000	45
113.8930000000	49
113.9230000000	48
113.9530000000	44
113.9830000000	42
114.0130000000	33
114.0430000000	30
114.0730000000	37
114.1030000000	29
114.1330000000	40
114.1630000000	40
114.1930000000	44
114.2230000000	49
114.2530000000	35
114.2830000000	25
114.3130000000	37
114.3430000000	32
114.3730000000	37
114.4030000000	46
114.4330000000	37
114.4630000000	1
114.4930000000	1
114.5230000000	1
114.5530000000	1
114.5830000000	1
