0.3130000000	1
0.3430000000	1
0.3730000000	1
0.4030000000	1
0.4330000000	1
0.4630000000	1
0.4930000000	2
0.5230000000	1
0.5530000000	1
0.5830000000	2
0.6130000000	1
0.6430000000	2
0.6730000000	1
0.7030000000	2
0.7330000000	1
0.7630000000	2
0.7930000000	1
0.8230000000	1
0.8530000000	1
0.8830000000	1
0.9130000000	1
0.9430000000	2
0.9730000000	1
1.0030000000	1
1.0330000000	1
1.0630000000	1
1.0930000000	2
1.1230000000	1
1.1530000000	1
1.1830000000	1
1.2130000000	2
1.2430000000	2
1.2730000000	1
1.3030000000	1
1.3330000000	1
1.3630000000	1
1.3930000000	1
1.4230000000	1
1.4530000000	1
1.4830000000	2
1.5130000000	2
1.5430000000	1
1.5730000000	1
1.6030000000	1
1.6330000000	1
1.6630000000	1
1.6930000000	1
1.7230000000	1
1.7530000000	1
1.7830000000	1
1.8130000000	2
1.8430000000	2
1.8730000000	2
1.9030000000	1
1.9330000000	2
1.9630000000	1
1.9930000000	2
2.0230000000	1
2.0530000000	1
2.0830000000	1
2.1130000000	2
2.1430000000	2
2.1730000000	1
2.2030000000	1
2.2330000000	2
2.2630000000	1
2.2930000000	2
2.3230000000	2
2.3530000000	1
2.3830000000	1
2.4130000000	1
2.4430000000	1
2.4730000000	1
2.5030000000	2
2.5330000000	2
2.5630000000	1
2.5930000000	1
2.6230000000	1
2.6530000000	2
2.6830000000	2
2.7130000000	2
2.7430000000	2
2.7730000000	1
2.8030000000	1
2.8330000000	1
2.8630000000	1
2.8930000000	1
2.9230000000	2
2.9530000000	3
2.9830000000	1
3.0130000000	2
3.0430000000	2
3.0730000000	2
3.1030000000	2
3.1330000000	1
3.1630000000	1
3.1930000000	2
3.2230000000	1
3.2530000000	2
3.2830000000	1
3.3130000000	1
3.3430000000	2
3.3730000000	3
3.4030000000	1
3.4330000000	3
3.4630000000	3
3.4930000000	4
3.5230000000	1
3.5530000000	2
3.5830000000	2
3.6130000000	2
3.6430000000	3
3.6730000000	2
3.7030000000	1
3.7330000000	1
3.7630000000	1
3.7930000000	2
3.8230000000	5
3.8530000000	2
3.8830000000	2
3.9130000000	3
3.9430000000	3
3.9730000000	4
4.0030000000	1
4.0330000000	2
4.0630000000	2
4.0930000000	4
4.1230000000	2
4.1530000000	4
4.1830000000	4
4.2130000000	2
4.2430000000	3
4.2730000000	3
4.3030000000	6
4.3330000000	10
4.3630000000	3
4.3930000000	7
4.4230000000	5
4.4530000000	4
4.4830000000	14
4.5130000000	22
4.5430000000	30
4.5730000000	51
4.6030000000	76
4.6330000000	84
4.6630000000	102
4.6930000000	161
4.7230000000	118
4.7530000000	135
4.7830000000	123
4.8130000000	135
4.8430000000	127
4.8730000000	146
4.9030000000	121
4.9330000000	127
4.9630000000	135
4.9930000000	148
5.0230000000	130
5.0530000000	156
5.0830000000	143
5.1130000000	141
5.1430000000	126
5.1730000000	138
5.2030000000	122
5.2330000000	140
5.2630000000	137
5.2930000000	153
5.3230000000	124
5.3530000000	149
5.3830000000	140
5.4130000000	139
5.4430000000	149
5.4730000000	124
5.5030000000	151
5.5330000000	122
5.5630000000	152
5.5930000000	150
5.6230000000	147
5.6530000000	148
5.6830000000	141
5.7130000000	130
5.7430000000	138
5.7730000000	143
5.8030000000	133
5.8330000000	158
5.8630000000	127
5.8930000000	156
5.9230000000	123
5.9530000000	145
5.9830000000	126
6.0130000000	144
6.0430000000	125
6.0730000000	157
6.1030000000	134
6.1330000000	145
6.1630000000	145
6.1930000000	125
6.2230000000	150
6.2530000000	137
6.2830000000	150
6.3130000000	141
6.3430000000	133
6.3730000000	157
6.4030000000	154
6.4330000000	137
6.4630000000	144
6.4930000000	141
6.5230000000	172
6.5530000000	145
6.5830000000	122
6.6130000000	138
6.6430000000	139
6.6730000000	145
6.7030000000	165
6.7330000000	145
6.7630000000	141
6.7930000000	134
6.8230000000	136
6.8530000000	148
6.8830000000	135
6.9130000000	152
6.9430000000	147
6.9730000000	152
7.0030000000	143
7.0330000000	162
7.0630000000	149
7.0930000000	152
7.1230000000	152
7.1530000000	127
7.1830000000	163
7.2130000000	152
7.2430000000	133
7.2730000000	133
7.3030000000	150
7.3330000000	147
7.3630000000	129
7.3930000000	138
7.4230000000	133
7.4530000000	139
7.4830000000	154
7.5130000000	133
7.5430000000	137
7.5730000000	132
7.6030000000	149
7.6330000000	146
7.6630000000	139
7.6930000000	153
7.7230000000	137
7.7530000000	133
7.7830000000	137
7.8130000000	130
7.8430000000	130
7.8730000000	143
7.9030000000	147
7.9330000000	143
7.9630000000	146
7.9930000000	139
8.0230000000	144
8.0530000000	164
8.0830000000	157
8.1130000000	133
8.1430000000	140
8.1730000000	150
8.2030000000	141
8.2330000000	129
8.2630000000	142
8.2930000000	133
8.3230000000	139
8.3530000000	153
8.3830000000	135
8.4130000000	135
8.4430000000	136
8.4730000000	153
8.5030000000	135
8.5330000000	146
8.5630000000	129
8.5930000000	148
8.6230000000	145
8.6530000000	137
8.6830000000	124
8.7130000000	160
8.7430000000	157
8.7730000000	156
8.8030000000	137
8.8330000000	152
8.8630000000	131
8.8930000000	136
8.9230000000	150
8.9530000000	158
8.9830000000	131
9.0130000000	171
9.0430000000	174
9.0730000000	150
9.1030000000	131
9.1330000000	139
9.1630000000	144
9.1930000000	164
9.2230000000	141
9.2530000000	149
9.2830000000	150
9.3130000000	150
9.3430000000	158
9.3730000000	145
9.4030000000	148
9.4330000000	156
9.4630000000	151
9.4930000000	151
9.5230000000	135
9.5530000000	137
9.5830000000	127
9.6130000000	147
9.6430000000	152
9.6730000000	146
9.7030000000	136
9.7330000000	143
9.7630000000	148
9.7930000000	141
9.8230000000	137
9.8530000000	130
9.8830000000	132
9.9130000000	140
9.9430000000	140
9.9730000000	139
10.0030000000	136
10.0330000000	148
10.0630000000	154
10.0930000000	145
10.1230000000	125
10.1530000000	184
10.1830000000	145
10.2130000000	142
10.2430000000	136
10.2730000000	130
10.3030000000	134
10.3330000000	129
10.3630000000	159
10.3930000000	138
10.4230000000	147
10.4530000000	138
10.4830000000	135
10.5130000000	127
10.5430000000	169
10.5730000000	147
10.6030000000	151
10.6330000000	131
10.6630000000	153
10.6930000000	154
10.7230000000	158
10.7530000000	145
10.7830000000	141
10.8130000000	173
10.8430000000	131
10.8730000000	138
10.9030000000	159
10.9330000000	151
10.9630000000	147
10.9930000000	148
11.0230000000	150
11.0530000000	158
11.0830000000	142
11.1130000000	146
11.1430000000	141
11.1730000000	138
11.2030000000	149
11.2330000000	134
11.2630000000	149
11.2930000000	149
11.3230000000	127
11.3530000000	159
11.3830000000	151
11.4130000000	154
11.4430000000	160
11.4730000000	127
11.5030000000	138
11.5330000000	153
11.5630000000	138
11.5930000000	151
11.6230000000	141
11.6530000000	139
11.6830000000	135
11.7130000000	148
11.7430000000	150
11.7730000000	144
11.8030000000	151
11.8330000000	146
11.8630000000	140
11.8930000000	154
11.9230000000	149
11.9530000000	120
11.9830000000	149
12.0130000000	155
12.0430000000	142
12.0730000000	136
12.1030000000	159
12.1330000000	155
12.1630000000	157
12.1930000000	146
12.2230000000	158
12.2530000000	147
12.2830000000	141
12.3130000000	142
12.3430000000	148
12.3730000000	144
12.4030000000	142
12.4330000000	161
12.4630000000	164
12.4930000000	163
12.5230000000	147
12.5530000000	135
12.5830000000	148
12.6130000000	169
12.6430000000	157
12.6730000000	136
12.7030000000	127
12.7330000000	133
12.7630000000	146
12.7930000000	145
12.8230000000	152
12.8530000000	144
12.8830000000	158
12.9130000000	158
12.9430000000	129
12.9730000000	132
13.0030000000	142
13.0330000000	138
13.0630000000	144
13.0930000000	143
13.1230000000	135
13.1530000000	154
13.1830000000	141
13.2130000000	145
13.2430000000	130
13.2730000000	132
13.3030000000	117
13.3330000000	157
13.3630000000	157
13.3930000000	134
13.4230000000	127
13.4530000000	132
13.4830000000	144
13.5130000000	158
13.5430000000	126
13.5730000000	148
13.6030000000	154
13.6330000000	140
13.6630000000	135
13.6930000000	169
13.7230000000	141
13.7530000000	157
13.7830000000	140
13.8130000000	133
13.8430000000	147
13.8730000000	141
13.9030000000	154
13.9330000000	146
13.9630000000	135
13.9930000000	149
14.0230000000	148
14.0530000000	150
14.0830000000	142
14.1130000000	158
14.1430000000	129
14.1730000000	145
14.2030000000	120
14.2330000000	146
14.2630000000	137
14.2930000000	130
14.3230000000	137
14.3530000000	137
14.3830000000	166
14.4130000000	137
14.4430000000	161
14.4730000000	159
14.5030000000	140
14.5330000000	135
14.5630000000	146
14.5930000000	174
14.6230000000	134
14.6530000000	143
14.6830000000	149
14.7130000000	146
14.7430000000	147
14.7730000000	156
14.8030000000	154
14.8330000000	127
14.8630000000	167
14.8930000000	164
14.9230000000	148
14.9530000000	149
14.9830000000	136
15.0130000000	157
15.0430000000	162
15.0730000000	162
15.1030000000	129
15.1330000000	158
15.1630000000	153
15.1930000000	144
15.2230000000	154
15.2530000000	137
15.2830000000	139
15.3130000000	152
15.3430000000	159
15.3730000000	168
15.4030000000	161
15.4330000000	139
15.4630000000	178
15.4930000000	166
15.5230000000	157
15.5530000000	154
15.5830000000	145
15.6130000000	131
15.6430000000	152
15.6730000000	140
15.7030000000	133
15.7330000000	138
15.7630000000	134
15.7930000000	143
15.8230000000	137
15.8530000000	171
15.8830000000	141
15.9130000000	161
15.9430000000	142
15.9730000000	158
16.0030000000	144
16.0330000000	149
16.0630000000	155
16.0930000000	147
16.1230000000	143
16.1530000000	142
16.1830000000	140
16.2130000000	130
16.2430000000	125
16.2730000000	146
16.3030000000	125
16.3330000000	153
16.3630000000	150
16.3930000000	173
16.4230000000	156
16.4530000000	129
16.4830000000	147
16.5130000000	147
16.5430000000	146
16.5730000000	155
16.6030000000	141
16.6330000000	137
16.6630000000	177
16.6930000000	167
16.7230000000	145
16.7530000000	141
16.7830000000	138
16.8130000000	144
16.8430000000	152
16.8730000000	140
16.9030000000	159
16.9330000000	147
16.9630000000	150
16.9930000000	130
17.0230000000	151
17.0530000000	144
17.0830000000	173
17.1130000000	144
17.1430000000	151
17.1730000000	140
17.2030000000	145
17.2330000000	152
17.2630000000	139
17.2930000000	134
17.3230000000	144
17.3530000000	157
17.3830000000	145
17.4130000000	149
17.4430000000	158
17.4730000000	150
17.5030000000	126
17.5330000000	144
17.5630000000	153
17.5930000000	151
17.6230000000	157
17.6530000000	147
17.6830000000	140
17.7130000000	148
17.7430000000	159
17.7730000000	155
17.8030000000	141
17.8330000000	157
17.8630000000	155
17.8930000000	129
17.9230000000	152
17.9530000000	150
17.9830000000	141
18.0130000000	160
18.0430000000	147
18.0730000000	142
18.1030000000	145
18.1330000000	125
18.1630000000	133
18.1930000000	132
18.2230000000	147
18.2530000000	145
18.2830000000	135
18.3130000000	156
18.3430000000	136
18.3730000000	139
18.4030000000	154
18.4330000000	151
18.4630000000	136
18.4930000000	140
18.5230000000	160
18.5530000000	133
18.5830000000	140
18.6130000000	157
18.6430000000	149
18.6730000000	144
18.7030000000	144
18.7330000000	129
18.7630000000	135
18.7930000000	165
18.8230000000	164
18.8530000000	175
18.8830000000	149
18.9130000000	186
18.9430000000	174
18.9730000000	141
19.0030000000	150
19.0330000000	152
19.0630000000	136
19.0930000000	132
19.1230000000	161
19.1530000000	174
19.1830000000	151
19.2130000000	146
19.2430000000	163
19.2730000000	139
19.3030000000	168
19.3330000000	145
19.3630000000	128
19.3930000000	134
19.4230000000	152
19.4530000000	148
19.4830000000	166
19.5130000000	134
19.5430000000	139
19.5730000000	152
19.6030000000	138
19.6330000000	145
19.6630000000	152
19.6930000000	136
19.7230000000	127
19.7530000000	152
19.7830000000	171
19.8130000000	153
19.8430000000	171
19.8730000000	149
19.9030000000	176
19.9330000000	151
19.9630000000	150
19.9930000000	157
20.0230000000	148
20.0530000000	164
20.0830000000	171
20.1130000000	172
20.1430000000	154
20.1730000000	172
20.2030000000	161
20.2330000000	192
20.2630000000	162
20.2930000000	161
20.3230000000	163
20.3530000000	187
20.3830000000	155
20.4130000000	190
20.4430000000	185
20.4730000000	169
20.5030000000	168
20.5330000000	176
20.5630000000	175
20.5930000000	204
20.6230000000	229
20.6530000000	259
20.6830000000	426
20.7130000000	687
20.7430000000	1069
20.7730000000	1625
20.8030000000	2466
20.8330000000	3901
20.8630000000	6107
20.8930000000	7289
20.9230000000	6555
20.9530000000	4300
20.9830000000	2600
21.0130000000	1565
21.0430000000	907
21.0730000000	585
21.1030000000	374
21.1330000000	254
21.1630000000	213
21.1930000000	195
21.2230000000	212
21.2530000000	180
21.2830000000	169
21.3130000000	144
21.3430000000	172
21.3730000000	154
21.4030000000	145
21.4330000000	190
21.4630000000	189
21.4930000000	150
21.5230000000	163
21.5530000000	161
21.5830000000	170
21.6130000000	160
21.6430000000	165
21.6730000000	170
21.7030000000	165
21.7330000000	154
21.7630000000	168
21.7930000000	168
21.8230000000	155
21.8530000000	168
21.8830000000	160
21.9130000000	163
21.9430000000	164
21.9730000000	160
22.0030000000	146
22.0330000000	153
22.0630000000	154
22.0930000000	171
22.1230000000	182
22.1530000000	188
22.1830000000	170
22.2130000000	165
22.2430000000	162
22.2730000000	151
22.3030000000	171
22.3330000000	186
22.3630000000	174
22.3930000000	172
22.4230000000	170
22.4530000000	168
22.4830000000	162
22.5130000000	168
22.5430000000	179
22.5730000000	184
22.6030000000	164
22.6330000000	147
22.6630000000	148
22.6930000000	155
22.7230000000	184
22.7530000000	150
22.7830000000	159
22.8130000000	185
22.8430000000	178
22.8730000000	197
22.9030000000	152
22.9330000000	162
22.9630000000	171
22.9930000000	168
23.0230000000	147
23.0530000000	149
23.0830000000	156
23.1130000000	181
23.1430000000	171
23.1730000000	160
23.2030000000	160
23.2330000000	163
23.2630000000	155
23.2930000000	169
23.3230000000	161
23.3530000000	177
23.3830000000	176
23.4130000000	161
23.4430000000	159
23.4730000000	161
23.5030000000	157
23.5330000000	164
23.5630000000	152
23.5930000000	183
23.6230000000	169
23.6530000000	157
23.6830000000	173
23.7130000000	181
23.7430000000	197
23.7730000000	162
23.8030000000	169
23.8330000000	177
23.8630000000	178
23.8930000000	181
23.9230000000	184
23.9530000000	163
23.9830000000	148
24.0130000000	159
24.0430000000	149
24.0730000000	158
24.1030000000	165
24.1330000000	169
24.1630000000	158
24.1930000000	184
24.2230000000	177
24.2530000000	178
24.2830000000	166
24.3130000000	151
24.3430000000	177
24.3730000000	158
24.4030000000	164
24.4330000000	148
24.4630000000	141
24.4930000000	157
24.5230000000	165
24.5530000000	169
24.5830000000	179
24.6130000000	161
24.6430000000	144
24.6730000000	164
24.7030000000	177
24.7330000000	154
24.7630000000	164
24.7930000000	166
24.8230000000	162
24.8530000000	165
24.8830000000	157
24.9130000000	182
24.9430000000	168
24.9730000000	180
25.0030000000	154
25.0330000000	178
25.0630000000	174
25.0930000000	169
25.1230000000	169
25.1530000000	163
25.1830000000	163
25.2130000000	162
25.2430000000	158
25.2730000000	166
25.3030000000	172
25.3330000000	176
25.3630000000	158
25.3930000000	196
25.4230000000	204
25.4530000000	203
25.4830000000	251
25.5130000000	265
25.5430000000	217
25.5730000000	252
25.6030000000	186
25.6330000000	194
25.6630000000	187
25.6930000000	192
25.7230000000	175
25.7530000000	167
25.7830000000	166
25.8130000000	158
25.8430000000	166
25.8730000000	167
25.9030000000	176
25.9330000000	164
25.9630000000	171
25.9930000000	158
26.0230000000	156
26.0530000000	181
26.0830000000	164
26.1130000000	153
26.1430000000	167
26.1730000000	178
26.2030000000	174
26.2330000000	161
26.2630000000	176
26.2930000000	151
26.3230000000	162
26.3530000000	153
26.3830000000	154
26.4130000000	170
26.4430000000	163
26.4730000000	169
26.5030000000	179
26.5330000000	153
26.5630000000	170
26.5930000000	154
26.6230000000	146
26.6530000000	162
26.6830000000	173
26.7130000000	175
26.7430000000	177
26.7730000000	169
26.8030000000	149
26.8330000000	158
26.8630000000	152
26.8930000000	142
26.9230000000	141
26.9530000000	149
26.9830000000	170
27.0130000000	189
27.0430000000	171
27.0730000000	160
27.1030000000	159
27.1330000000	156
27.1630000000	167
27.1930000000	156
27.2230000000	154
27.2530000000	162
27.2830000000	159
27.3130000000	170
27.3430000000	162
27.3730000000	144
27.4030000000	146
27.4330000000	141
27.4630000000	164
27.4930000000	140
27.5230000000	138
27.5530000000	160
27.5830000000	124
27.6130000000	155
27.6430000000	158
27.6730000000	163
27.7030000000	163
27.7330000000	128
27.7630000000	148
27.7930000000	156
27.8230000000	136
27.8530000000	165
27.8830000000	166
27.9130000000	142
27.9430000000	146
27.9730000000	166
28.0030000000	141
28.0330000000	153
28.0630000000	164
28.0930000000	163
28.1230000000	155
28.1530000000	137
28.1830000000	162
28.2130000000	146
28.2430000000	154
28.2730000000	161
28.3030000000	167
28.3330000000	179
28.3630000000	164
28.3930000000	138
28.4230000000	145
28.4530000000	154
28.4830000000	146
28.5130000000	149
28.5430000000	141
28.5730000000	160
28.6030000000	151
28.6330000000	135
28.6630000000	140
28.6930000000	160
28.7230000000	146
28.7530000000	167
28.7830000000	144
28.8130000000	150
28.8430000000	149
28.8730000000	159
28.9030000000	139
28.9330000000	143
28.9630000000	144
28.9930000000	150
29.0230000000	170
29.0530000000	135
29.0830000000	153
29.1130000000	125
29.1430000000	154
29.1730000000	129
29.2030000000	137
29.2330000000	132
29.2630000000	146
29.2930000000	137
29.3230000000	142
29.3530000000	147
29.3830000000	140
29.4130000000	137
29.4430000000	127
29.4730000000	128
29.5030000000	135
29.5330000000	124
29.5630000000	137
29.5930000000	118
29.6230000000	159
29.6530000000	131
29.6830000000	133
29.7130000000	145
29.7430000000	141
29.7730000000	130
29.8030000000	124
29.8330000000	142
29.8630000000	166
29.8930000000	141
29.9230000000	139
29.9530000000	123
29.9830000000	158
30.0130000000	153
30.0430000000	135
30.0730000000	124
30.1030000000	148
30.1330000000	150
30.1630000000	137
30.1930000000	124
30.2230000000	142
30.2530000000	141
30.2830000000	129
30.3130000000	126
30.3430000000	134
30.3730000000	116
30.4030000000	135
30.4330000000	137
30.4630000000	121
30.4930000000	152
30.5230000000	135
30.5530000000	132
30.5830000000	146
30.6130000000	135
30.6430000000	123
30.6730000000	143
30.7030000000	145
30.7330000000	130
30.7630000000	147
30.7930000000	125
30.8230000000	129
30.8530000000	139
30.8830000000	136
30.9130000000	128
30.9430000000	132
30.9730000000	153
31.0030000000	134
31.0330000000	129
31.0630000000	143
31.0930000000	126
31.1230000000	144
31.1530000000	125
31.1830000000	141
31.2130000000	126
31.2430000000	154
31.2730000000	147
31.3030000000	151
31.3330000000	142
31.3630000000	112
31.3930000000	129
31.4230000000	140
31.4530000000	162
31.4830000000	139
31.5130000000	132
31.5430000000	143
31.5730000000	137
31.6030000000	152
31.6330000000	129
31.6630000000	110
31.6930000000	112
31.7230000000	146
31.7530000000	137
31.7830000000	129
31.8130000000	117
31.8430000000	130
31.8730000000	125
31.9030000000	139
31.9330000000	120
31.9630000000	113
31.9930000000	129
32.0230000000	119
32.0530000000	128
32.0830000000	127
32.1130000000	140
32.1430000000	147
32.1730000000	116
32.2030000000	129
32.2330000000	128
32.2630000000	112
32.2930000000	128
32.3230000000	130
32.3530000000	108
32.3830000000	126
32.4130000000	142
32.4430000000	138
32.4730000000	131
32.5030000000	117
32.5330000000	131
32.5630000000	148
32.5930000000	138
32.6230000000	133
32.6530000000	136
32.6830000000	136
32.7130000000	122
32.7430000000	130
32.7730000000	160
32.8030000000	152
32.8330000000	145
32.8630000000	193
32.8930000000	213
32.9230000000	218
32.9530000000	271
32.9830000000	404
33.0130000000	710
33.0430000000	1220
33.0730000000	1894
33.1030000000	2755
33.1330000000	4277
33.1630000000	6515
33.1930000000	8089
33.2230000000	7922
33.2530000000	5871
33.2830000000	3687
33.3130000000	2231
33.3430000000	1323
33.3730000000	777
33.4030000000	497
33.4330000000	283
33.4630000000	213
33.4930000000	209
33.5230000000	185
33.5530000000	180
33.5830000000	173
33.6130000000	163
33.6430000000	137
33.6730000000	138
33.7030000000	158
33.7330000000	155
33.7630000000	152
33.7930000000	132
33.8230000000	128
33.8530000000	129
33.8830000000	118
33.9130000000	111
33.9430000000	120
33.9730000000	124
34.0030000000	124
34.0330000000	117
34.0630000000	115
34.0930000000	119
34.1230000000	114
34.1530000000	125
34.1830000000	124
34.2130000000	134
34.2430000000	133
34.2730000000	112
34.3030000000	122
34.3330000000	122
34.3630000000	108
34.3930000000	104
34.4230000000	114
34.4530000000	126
34.4830000000	130
34.5130000000	107
34.5430000000	119
34.5730000000	118
34.6030000000	107
34.6330000000	103
34.6630000000	110
34.6930000000	98
34.7230000000	112
34.7530000000	102
34.7830000000	113
34.8130000000	133
34.8430000000	117
34.8730000000	103
34.9030000000	119
34.9330000000	122
34.9630000000	110
34.9930000000	113
35.0230000000	110
35.0530000000	116
35.0830000000	114
35.1130000000	120
35.1430000000	105
35.1730000000	130
35.2030000000	128
35.2330000000	126
35.2630000000	108
35.2930000000	100
35.3230000000	102
35.3530000000	111
35.3830000000	110
35.4130000000	102
35.4430000000	106
35.4730000000	99
35.5030000000	110
35.5330000000	119
35.5630000000	125
35.5930000000	93
35.6230000000	101
35.6530000000	114
35.6830000000	110
35.7130000000	115
35.7430000000	116
35.7730000000	101
35.8030000000	119
35.8330000000	122
35.8630000000	106
35.8930000000	86
35.9230000000	115
35.9530000000	101
35.9830000000	85
36.0130000000	96
36.0430000000	111
36.0730000000	100
36.1030000000	101
36.1330000000	88
36.1630000000	115
36.1930000000	105
36.2230000000	134
36.2530000000	134
36.2830000000	169
36.3130000000	216
36.3430000000	240
36.3730000000	260
36.4030000000	251
36.4330000000	222
36.4630000000	189
36.4930000000	155
36.5230000000	124
36.5530000000	96
36.5830000000	116
36.6130000000	115
36.6430000000	103
36.6730000000	90
36.7030000000	90
36.7330000000	89
36.7630000000	98
36.7930000000	91
36.8230000000	114
36.8530000000	110
36.8830000000	88
36.9130000000	100
36.9430000000	97
36.9730000000	96
37.0030000000	110
37.0330000000	112
37.0630000000	97
37.0930000000	97
37.1230000000	104
37.1530000000	111
37.1830000000	111
37.2130000000	92
37.2430000000	86
37.2730000000	100
37.3030000000	94
37.3330000000	102
37.3630000000	107
37.3930000000	94
37.4230000000	92
37.4530000000	91
37.4830000000	99
37.5130000000	85
37.5430000000	96
37.5730000000	93
37.6030000000	109
37.6330000000	100
37.6630000000	104
37.6930000000	101
37.7230000000	95
37.7530000000	94
37.7830000000	85
37.8130000000	86
37.8430000000	96
37.8730000000	107
37.9030000000	89
37.9330000000	101
37.9630000000	81
37.9930000000	87
38.0230000000	90
38.0530000000	88
38.0830000000	95
38.1130000000	86
38.1430000000	93
38.1730000000	87
38.2030000000	92
38.2330000000	90
38.2630000000	93
38.2930000000	87
38.3230000000	100
38.3530000000	101
38.3830000000	107
38.4130000000	109
38.4430000000	87
38.4730000000	85
38.5030000000	87
38.5330000000	90
38.5630000000	97
38.5930000000	101
38.6230000000	95
38.6530000000	101
38.6830000000	101
38.7130000000	103
38.7430000000	97
38.7730000000	103
38.8030000000	98
38.8330000000	96
38.8630000000	99
38.8930000000	81
38.9230000000	91
38.9530000000	100
38.9830000000	93
39.0130000000	93
39.0430000000	96
39.0730000000	101
39.1030000000	100
39.1330000000	90
39.1630000000	99
39.1930000000	90
39.2230000000	91
39.2530000000	96
39.2830000000	98
39.3130000000	87
39.3430000000	101
39.3730000000	80
39.4030000000	91
39.4330000000	83
39.4630000000	110
39.4930000000	105
39.5230000000	93
39.5530000000	82
39.5830000000	77
39.6130000000	88
39.6430000000	86
39.6730000000	107
39.7030000000	102
39.7330000000	94
39.7630000000	101
39.7930000000	90
39.8230000000	88
39.8530000000	94
39.8830000000	83
39.9130000000	111
39.9430000000	93
39.9730000000	85
40.0030000000	88
40.0330000000	91
40.0630000000	98
40.0930000000	83
40.1230000000	85
40.1530000000	83
40.1830000000	103
40.2130000000	86
40.2430000000	88
40.2730000000	86
40.3030000000	80
40.3330000000	72
40.3630000000	84
40.3930000000	94
40.4230000000	110
40.4530000000	119
40.4830000000	104
40.5130000000	93
40.5430000000	80
40.5730000000	80
40.6030000000	110
40.6330000000	99
40.6630000000	109
40.6930000000	129
40.7230000000	134
40.7530000000	148
40.7830000000	200
40.8130000000	270
40.8430000000	341
40.8730000000	451
40.9030000000	499
40.9330000000	455
40.9630000000	335
40.9930000000	258
41.0230000000	217
41.0530000000	158
41.0830000000	150
41.1130000000	128
41.1430000000	87
41.1730000000	107
41.2030000000	106
41.2330000000	109
41.2630000000	102
41.2930000000	116
41.3230000000	108
41.3530000000	101
41.3830000000	104
41.4130000000	83
41.4430000000	83
41.4730000000	110
41.5030000000	117
41.5330000000	98
41.5630000000	102
41.5930000000	101
41.6230000000	87
41.6530000000	99
41.6830000000	112
41.7130000000	93
41.7430000000	100
41.7730000000	105
41.8030000000	99
41.8330000000	79
41.8630000000	103
41.8930000000	106
41.9230000000	91
41.9530000000	101
41.9830000000	96
42.0130000000	95
42.0430000000	95
42.0730000000	86
42.1030000000	95
42.1330000000	113
42.1630000000	120
42.1930000000	120
42.2230000000	153
42.2530000000	167
42.2830000000	182
42.3130000000	226
42.3430000000	215
42.3730000000	208
42.4030000000	228
42.4330000000	202
42.4630000000	206
42.4930000000	242
42.5230000000	236
42.5530000000	211
42.5830000000	172
42.6130000000	140
42.6430000000	125
42.6730000000	118
42.7030000000	118
42.7330000000	102
42.7630000000	105
42.7930000000	113
42.8230000000	100
42.8530000000	118
42.8830000000	77
42.9130000000	108
42.9430000000	96
42.9730000000	102
43.0030000000	88
43.0330000000	89
43.0630000000	72
43.0930000000	95
43.1230000000	93
43.1530000000	90
43.1830000000	86
43.2130000000	96
43.2430000000	90
43.2730000000	101
43.3030000000	81
43.3330000000	86
43.3630000000	93
43.3930000000	78
43.4230000000	83
43.4530000000	105
43.4830000000	110
43.5130000000	85
43.5430000000	93
43.5730000000	106
43.6030000000	84
43.6330000000	86
43.6630000000	68
43.6930000000	97
43.7230000000	101
43.7530000000	87
43.7830000000	105
43.8130000000	97
43.8430000000	96
43.8730000000	78
43.9030000000	100
43.9330000000	90
43.9630000000	76
43.9930000000	98
44.0230000000	86
44.0530000000	105
44.0830000000	75
44.1130000000	96
44.1430000000	76
44.1730000000	71
44.2030000000	85
44.2330000000	93
44.2630000000	78
44.2930000000	84
44.3230000000	88
44.3530000000	91
44.3830000000	89
44.4130000000	101
44.4430000000	63
44.4730000000	81
44.5030000000	111
44.5330000000	97
44.5630000000	86
44.5930000000	87
44.6230000000	84
44.6530000000	80
44.6830000000	79
44.7130000000	75
44.7430000000	87
44.7730000000	96
44.8030000000	76
44.8330000000	79
44.8630000000	88
44.8930000000	73
44.9230000000	83
44.9530000000	75
44.9830000000	77
45.0130000000	80
45.0430000000	93
45.0730000000	72
45.1030000000	80
45.1330000000	85
45.1630000000	92
45.1930000000	84
45.2230000000	90
45.2530000000	86
45.2830000000	76
45.3130000000	69
45.3430000000	85
45.3730000000	77
45.4030000000	73
45.4330000000	86
45.4630000000	91
45.4930000000	83
45.5230000000	75
45.5530000000	72
45.5830000000	73
45.6130000000	74
45.6430000000	75
45.6730000000	85
45.7030000000	80
45.7330000000	72
45.7630000000	76
45.7930000000	69
45.8230000000	77
45.8530000000	96
45.8830000000	82
45.9130000000	96
45.9430000000	76
45.9730000000	52
46.0030000000	83
46.0330000000	90
46.0630000000	79
46.0930000000	86
46.1230000000	85
46.1530000000	80
46.1830000000	82
46.2130000000	97
46.2430000000	96
46.2730000000	109
46.3030000000	104
46.3330000000	117
46.3630000000	119
46.3930000000	114
46.4230000000	114
46.4530000000	88
46.4830000000	100
46.5130000000	85
46.5430000000	96
46.5730000000	64
46.6030000000	71
46.6330000000	72
46.6630000000	83
46.6930000000	89
46.7230000000	75
46.7530000000	74
46.7830000000	84
46.8130000000	79
46.8430000000	77
46.8730000000	80
46.9030000000	86
46.9330000000	73
46.9630000000	69
46.9930000000	67
47.0230000000	73
47.0530000000	73
47.0830000000	82
47.1130000000	87
47.1430000000	88
47.1730000000	75
47.2030000000	77
47.2330000000	102
47.2630000000	91
47.2930000000	69
47.3230000000	83
47.3530000000	81
47.3830000000	76
47.4130000000	61
47.4430000000	77
47.4730000000	75
47.5030000000	76
47.5330000000	75
47.5630000000	75
47.5930000000	67
47.6230000000	66
47.6530000000	76
47.6830000000	84
47.7130000000	70
47.7430000000	71
47.7730000000	75
47.8030000000	87
47.8330000000	73
47.8630000000	62
47.8930000000	78
47.9230000000	74
47.9530000000	79
47.9830000000	70
48.0130000000	65
48.0430000000	72
48.0730000000	73
48.1030000000	78
48.1330000000	80
48.1630000000	79
48.1930000000	66
48.2230000000	58
48.2530000000	76
48.2830000000	68
48.3130000000	72
48.3430000000	69
48.3730000000	68
48.4030000000	58
48.4330000000	73
48.4630000000	65
48.4930000000	71
48.5230000000	70
48.5530000000	62
48.5830000000	70
48.6130000000	67
48.6430000000	57
48.6730000000	63
48.7030000000	72
48.7330000000	72
48.7630000000	68
48.7930000000	61
48.8230000000	66
48.8530000000	61
48.8830000000	62
48.9130000000	73
48.9430000000	77
48.9730000000	80
49.0030000000	76
49.0330000000	65
49.0630000000	57
49.0930000000	64
49.1230000000	85
49.1530000000	56
49.1830000000	77
49.2130000000	70
49.2430000000	63
49.2730000000	64
49.3030000000	78
49.3330000000	63
49.3630000000	71
49.3930000000	62
49.4230000000	79
49.4530000000	74
49.4830000000	66
49.5130000000	58
49.5430000000	74
49.5730000000	85
49.6030000000	65
49.6330000000	72
49.6630000000	59
49.6930000000	82
49.7230000000	72
49.7530000000	77
49.7830000000	58
49.8130000000	76
49.8430000000	76
49.8730000000	72
49.9030000000	53
49.9330000000	67
49.9630000000	60
49.9930000000	57
50.0230000000	60
50.0530000000	79
50.0830000000	72
50.1130000000	82
50.1430000000	68
50.1730000000	69
50.2030000000	79
50.2330000000	72
50.2630000000	89
50.2930000000	72
50.3230000000	80
50.3530000000	76
50.3830000000	73
50.4130000000	77
50.4430000000	62
50.4730000000	65
50.5030000000	56
50.5330000000	62
50.5630000000	61
50.5930000000	69
50.6230000000	63
50.6530000000	69
50.6830000000	67
50.7130000000	56
50.7430000000	57
50.7730000000	74
50.8030000000	66
50.8330000000	69
50.8630000000	69
50.8930000000	63
50.9230000000	60
50.9530000000	49
50.9830000000	64
51.0130000000	76
51.0430000000	74
51.0730000000	69
51.1030000000	69
51.1330000000	73
51.1630000000	75
51.1930000000	65
51.2230000000	73
51.2530000000	68
51.2830000000	62
51.3130000000	60
51.3430000000	65
51.3730000000	59
51.4030000000	67
51.4330000000	62
51.4630000000	58
51.4930000000	41
51.5230000000	53
51.5530000000	65
51.5830000000	55
51.6130000000	60
51.6430000000	63
51.6730000000	60
51.7030000000	61
51.7330000000	61
51.7630000000	61
51.7930000000	59
51.8230000000	56
51.8530000000	51
51.8830000000	63
51.9130000000	55
51.9430000000	54
51.9730000000	52
52.0030000000	60
52.0330000000	68
52.0630000000	59
52.0930000000	66
52.1230000000	45
52.1530000000	60
52.1830000000	58
52.2130000000	67
52.2430000000	64
52.2730000000	64
52.3030000000	61
52.3330000000	61
52.3630000000	67
52.3930000000	62
52.4230000000	96
52.4530000000	76
52.4830000000	67
52.5130000000	64
52.5430000000	74
52.5730000000	58
52.6030000000	57
52.6330000000	54
52.6630000000	51
52.6930000000	61
52.7230000000	66
52.7530000000	58
52.7830000000	49
52.8130000000	65
52.8430000000	66
52.8730000000	60
52.9030000000	69
52.9330000000	57
52.9630000000	53
52.9930000000	57
53.0230000000	56
53.0530000000	74
53.0830000000	49
53.1130000000	52
53.1430000000	49
53.1730000000	67
53.2030000000	56
53.2330000000	63
53.2630000000	61
53.2930000000	50
53.3230000000	52
53.3530000000	57
53.3830000000	53
53.4130000000	67
53.4430000000	61
53.4730000000	55
53.5030000000	62
53.5330000000	57
53.5630000000	50
53.5930000000	50
53.6230000000	54
53.6530000000	63
53.6830000000	62
53.7130000000	56
53.7430000000	50
53.7730000000	56
53.8030000000	59
53.8330000000	64
53.8630000000	49
53.8930000000	59
53.9230000000	53
53.9530000000	66
53.9830000000	44
54.0130000000	47
54.0430000000	67
54.0730000000	47
54.1030000000	47
54.1330000000	42
54.1630000000	64
54.1930000000	69
54.2230000000	69
54.2530000000	55
54.2830000000	52
54.3130000000	65
54.3430000000	54
54.3730000000	40
54.4030000000	59
54.4330000000	59
54.4630000000	58
54.4930000000	58
54.5230000000	41
54.5530000000	53
54.5830000000	55
54.6130000000	49
54.6430000000	58
54.6730000000	65
54.7030000000	51
54.7330000000	57
54.7630000000	64
54.7930000000	54
54.8230000000	57
54.8530000000	47
54.8830000000	56
54.9130000000	60
54.9430000000	56
54.9730000000	62
55.0030000000	56
55.0330000000	63
55.0630000000	57
55.0930000000	65
55.1230000000	77
55.1530000000	51
55.1830000000	54
55.2130000000	62
55.2430000000	51
55.2730000000	59
55.3030000000	68
55.3330000000	56
55.3630000000	53
55.3930000000	60
55.4230000000	48
55.4530000000	48
55.4830000000	51
55.5130000000	77
55.5430000000	65
55.5730000000	54
55.6030000000	70
55.6330000000	46
55.6630000000	58
55.6930000000	56
55.7230000000	43
55.7530000000	53
55.7830000000	48
55.8130000000	63
55.8430000000	57
55.8730000000	45
55.9030000000	52
55.9330000000	62
55.9630000000	48
55.9930000000	59
56.0230000000	51
56.0530000000	61
56.0830000000	42
56.1130000000	54
56.1430000000	54
56.1730000000	63
56.2030000000	58
56.2330000000	47
56.2630000000	57
56.2930000000	61
56.3230000000	54
56.3530000000	53
56.3830000000	50
56.4130000000	58
56.4430000000	58
56.4730000000	62
56.5030000000	54
56.5330000000	56
56.5630000000	66
56.5930000000	66
56.6230000000	59
56.6530000000	73
56.6830000000	63
56.7130000000	50
56.7430000000	63
56.7730000000	56
56.8030000000	58
56.8330000000	64
56.8630000000	53
56.8930000000	60
56.9230000000	51
56.9530000000	52
56.9830000000	50
57.0130000000	43
57.0430000000	60
57.0730000000	66
57.1030000000	70
57.1330000000	64
57.1630000000	66
57.1930000000	65
57.2230000000	61
57.2530000000	58
57.2830000000	62
57.3130000000	66
57.3430000000	55
57.3730000000	59
57.4030000000	69
57.4330000000	60
57.4630000000	51
57.4930000000	54
57.5230000000	51
57.5530000000	49
57.5830000000	61
57.6130000000	39
57.6430000000	40
57.6730000000	60
57.7030000000	41
57.7330000000	57
57.7630000000	47
57.7930000000	48
57.8230000000	46
57.8530000000	65
57.8830000000	47
57.9130000000	49
57.9430000000	49
57.9730000000	57
58.0030000000	65
58.0330000000	50
58.0630000000	66
58.0930000000	63
58.1230000000	59
58.1530000000	34
58.1830000000	38
58.2130000000	46
58.2430000000	63
58.2730000000	55
58.3030000000	56
58.3330000000	62
58.3630000000	45
58.3930000000	49
58.4230000000	46
58.4530000000	51
58.4830000000	52
58.5130000000	49
58.5430000000	46
58.5730000000	61
58.6030000000	49
58.6330000000	52
58.6630000000	48
58.6930000000	48
58.7230000000	47
58.7530000000	57
58.7830000000	44
58.8130000000	45
58.8430000000	54
58.8730000000	50
58.9030000000	51
58.9330000000	43
58.9630000000	55
58.9930000000	47
59.0230000000	60
59.0530000000	65
59.0830000000	54
59.1130000000	46
59.1430000000	43
59.1730000000	57
59.2030000000	56
59.2330000000	44
59.2630000000	48
59.2930000000	54
59.3230000000	54
59.3530000000	54
59.3830000000	61
59.4130000000	48
59.4430000000	56
59.4730000000	47
59.5030000000	52
59.5330000000	47
59.5630000000	55
59.5930000000	54
59.6230000000	46
59.6530000000	42
59.6830000000	56
59.7130000000	47
59.7430000000	55
59.7730000000	41
59.8030000000	53
59.8330000000	52
59.8630000000	38
59.8930000000	64
59.9230000000	51
59.9530000000	54
59.9830000000	56
60.0130000000	50
60.0430000000	56
60.0730000000	62
60.1030000000	41
60.1330000000	63
60.1630000000	51
60.1930000000	50
60.2230000000	54
60.2530000000	52
60.2830000000	71
60.3130000000	47
60.3430000000	72
60.3730000000	59
60.4030000000	58
60.4330000000	62
60.4630000000	69
60.4930000000	77
60.5230000000	72
60.5530000000	57
60.5830000000	51
60.6130000000	49
60.6430000000	63
60.6730000000	44
60.7030000000	43
60.7330000000	45
60.7630000000	48
60.7930000000	44
60.8230000000	44
60.8530000000	49
60.8830000000	52
60.9130000000	54
60.9430000000	58
60.9730000000	55
61.0030000000	43
61.0330000000	55
61.0630000000	55
61.0930000000	61
61.1230000000	52
61.1530000000	50
61.1830000000	52
61.2130000000	51
61.2430000000	55
61.2730000000	57
61.3030000000	53
61.3330000000	54
61.3630000000	39
61.3930000000	42
61.4230000000	44
61.4530000000	48
61.4830000000	47
61.5130000000	53
61.5430000000	50
61.5730000000	46
61.6030000000	43
61.6330000000	41
61.6630000000	55
61.6930000000	52
61.7230000000	59
61.7530000000	47
61.7830000000	44
61.8130000000	38
61.8430000000	50
61.8730000000	41
61.9030000000	52
61.9330000000	52
61.9630000000	34
61.9930000000	56
62.0230000000	45
62.0530000000	38
62.0830000000	41
62.1130000000	36
62.1430000000	51
62.1730000000	46
62.2030000000	53
62.2330000000	46
62.2630000000	47
62.2930000000	31
62.3230000000	46
62.3530000000	68
62.3830000000	56
62.4130000000	49
62.4430000000	43
62.4730000000	43
62.5030000000	48
62.5330000000	52
62.5630000000	41
62.5930000000	37
62.6230000000	45
62.6530000000	44
62.6830000000	53
62.7130000000	60
62.7430000000	51
62.7730000000	44
62.8030000000	55
62.8330000000	41
62.8630000000	45
62.8930000000	47
62.9230000000	49
62.9530000000	49
62.9830000000	51
63.0130000000	52
63.0430000000	46
63.0730000000	49
63.1030000000	46
63.1330000000	43
63.1630000000	51
63.1930000000	49
63.2230000000	51
63.2530000000	48
63.2830000000	58
63.3130000000	70
63.3430000000	69
63.3730000000	88
63.4030000000	95
63.4330000000	74
63.4630000000	84
63.4930000000	91
63.5230000000	86
63.5530000000	96
63.5830000000	73
63.6130000000	63
63.6430000000	77
63.6730000000	74
63.7030000000	83
63.7330000000	41
63.7630000000	52
63.7930000000	56
63.8230000000	60
63.8530000000	57
63.8830000000	60
63.9130000000	44
63.9430000000	48
63.9730000000	48
64.0030000000	41
64.0330000000	52
64.0630000000	57
64.0930000000	59
64.1230000000	50
64.1530000000	49
64.1830000000	33
64.2130000000	39
64.2430000000	56
64.2730000000	45
64.3030000000	40
64.3330000000	56
64.3630000000	40
64.3930000000	39
64.4230000000	65
64.4530000000	40
64.4830000000	49
64.5130000000	46
64.5430000000	39
64.5730000000	55
64.6030000000	42
64.6330000000	44
64.6630000000	39
64.6930000000	62
64.7230000000	44
64.7530000000	51
64.7830000000	50
64.8130000000	44
64.8430000000	42
64.8730000000	62
64.9030000000	51
64.9330000000	51
64.9630000000	51
64.9930000000	48
65.0230000000	39
65.0530000000	40
65.0830000000	53
65.1130000000	50
65.1430000000	42
65.1730000000	37
65.2030000000	52
65.2330000000	51
65.2630000000	45
65.2930000000	50
65.3230000000	41
65.3530000000	36
65.3830000000	48
65.4130000000	48
65.4430000000	41
65.4730000000	49
65.5030000000	47
65.5330000000	51
65.5630000000	55
65.5930000000	39
65.6230000000	40
65.6530000000	54
65.6830000000	47
65.7130000000	43
65.7430000000	42
65.7730000000	46
65.8030000000	33
65.8330000000	49
65.8630000000	41
65.8930000000	42
65.9230000000	59
65.9530000000	62
65.9830000000	51
66.0130000000	44
66.0430000000	50
66.0730000000	42
66.1030000000	42
66.1330000000	49
66.1630000000	42
66.1930000000	44
66.2230000000	52
66.2530000000	39
66.2830000000	51
66.3130000000	44
66.3430000000	60
66.3730000000	50
66.4030000000	44
66.4330000000	52
66.4630000000	51
66.4930000000	42
66.5230000000	46
66.5530000000	44
66.5830000000	48
66.6130000000	51
66.6430000000	33
66.6730000000	41
66.7030000000	45
66.7330000000	49
66.7630000000	45
66.7930000000	54
66.8230000000	54
66.8530000000	54
66.8830000000	51
66.9130000000	36
66.9430000000	46
66.9730000000	51
67.0030000000	43
67.0330000000	51
67.0630000000	45
67.0930000000	38
67.1230000000	54
67.1530000000	55
67.1830000000	52
67.2130000000	48
67.2430000000	34
67.2730000000	47
67.3030000000	43
67.3330000000	58
67.3630000000	40
67.3930000000	47
67.4230000000	44
67.4530000000	39
67.4830000000	53
67.5130000000	48
67.5430000000	46
67.5730000000	45
67.6030000000	48
67.6330000000	43
67.6630000000	40
67.6930000000	46
67.7230000000	49
67.7530000000	58
67.7830000000	44
67.8130000000	31
67.8430000000	41
67.8730000000	49
67.9030000000	41
67.9330000000	52
67.9630000000	57
67.9930000000	43
68.0230000000	41
68.0530000000	36
68.0830000000	47
68.1130000000	48
68.1430000000	32
68.1730000000	45
68.2030000000	39
68.2330000000	55
68.2630000000	49
68.2930000000	52
68.3230000000	41
68.3530000000	50
68.3830000000	43
68.4130000000	48
68.4430000000	47
68.4730000000	52
68.5030000000	47
68.5330000000	52
68.5630000000	54
68.5930000000	48
68.6230000000	53
68.6530000000	51
68.6830000000	46
68.7130000000	35
68.7430000000	62
68.7730000000	61
68.8030000000	47
68.8330000000	46
68.8630000000	52
68.8930000000	52
68.9230000000	34
68.9530000000	40
68.9830000000	42
69.0130000000	41
69.0430000000	38
69.0730000000	45
69.1030000000	44
69.1330000000	42
69.1630000000	57
69.1930000000	43
69.2230000000	42
69.2530000000	56
69.2830000000	40
69.3130000000	38
69.3430000000	53
69.3730000000	45
69.4030000000	50
69.4330000000	44
69.4630000000	41
69.4930000000	58
69.5230000000	52
69.5530000000	50
69.5830000000	40
69.6130000000	41
69.6430000000	60
69.6730000000	64
69.7030000000	54
69.7330000000	55
69.7630000000	51
69.7930000000	56
69.8230000000	48
69.8530000000	49
69.8830000000	42
69.9130000000	55
69.9430000000	57
69.9730000000	38
70.0030000000	41
70.0330000000	54
70.0630000000	50
70.0930000000	45
70.1230000000	48
70.1530000000	37
70.1830000000	47
70.2130000000	49
70.2430000000	46
70.2730000000	55
70.3030000000	46
70.3330000000	52
70.3630000000	36
70.3930000000	48
70.4230000000	46
70.4530000000	54
70.4830000000	48
70.5130000000	41
70.5430000000	45
70.5730000000	53
70.6030000000	55
70.6330000000	45
70.6630000000	47
70.6930000000	51
70.7230000000	35
70.7530000000	51
70.7830000000	48
70.8130000000	48
70.8430000000	54
70.8730000000	40
70.9030000000	42
70.9330000000	39
70.9630000000	56
70.9930000000	49
71.0230000000	36
71.0530000000	47
71.0830000000	48
71.1130000000	45
71.1430000000	49
71.1730000000	36
71.2030000000	41
71.2330000000	50
71.2630000000	45
71.2930000000	41
71.3230000000	44
71.3530000000	40
71.3830000000	48
71.4130000000	49
71.4430000000	40
71.4730000000	43
71.5030000000	45
71.5330000000	43
71.5630000000	38
71.5930000000	44
71.6230000000	54
71.6530000000	49
71.6830000000	34
71.7130000000	48
71.7430000000	47
71.7730000000	50
71.8030000000	57
71.8330000000	54
71.8630000000	68
71.8930000000	46
71.9230000000	46
71.9530000000	57
71.9830000000	52
72.0130000000	48
72.0430000000	39
72.0730000000	43
72.1030000000	44
72.1330000000	46
72.1630000000	33
72.1930000000	53
72.2230000000	49
72.2530000000	55
72.2830000000	43
72.3130000000	41
72.3430000000	51
72.3730000000	42
72.4030000000	57
72.4330000000	63
72.4630000000	46
72.4930000000	54
72.5230000000	57
72.5530000000	59
72.5830000000	49
72.6130000000	57
72.6430000000	43
72.6730000000	50
72.7030000000	55
72.7330000000	44
72.7630000000	58
72.7930000000	49
72.8230000000	52
72.8530000000	52
72.8830000000	46
72.9130000000	54
72.9430000000	35
72.9730000000	57
73.0030000000	51
73.0330000000	46
73.0630000000	47
73.0930000000	49
73.1230000000	47
73.1530000000	37
73.1830000000	43
73.2130000000	47
73.2430000000	42
73.2730000000	37
73.3030000000	45
73.3330000000	50
73.3630000000	46
73.3930000000	51
73.4230000000	48
73.4530000000	54
73.4830000000	53
73.5130000000	53
73.5430000000	56
73.5730000000	43
73.6030000000	37
73.6330000000	38
73.6630000000	49
73.6930000000	50
73.7230000000	41
73.7530000000	52
73.7830000000	48
73.8130000000	47
73.8430000000	51
73.8730000000	37
73.9030000000	49
73.9330000000	41
73.9630000000	34
73.9930000000	46
74.0230000000	55
74.0530000000	46
74.0830000000	52
74.1130000000	49
74.1430000000	48
74.1730000000	35
74.2030000000	42
74.2330000000	46
74.2630000000	50
74.2930000000	48
74.3230000000	48
74.3530000000	48
74.3830000000	44
74.4130000000	45
74.4430000000	40
74.4730000000	41
74.5030000000	38
74.5330000000	43
74.5630000000	46
74.5930000000	39
74.6230000000	47
74.6530000000	42
74.6830000000	43
74.7130000000	44
74.7430000000	40
74.7730000000	47
74.8030000000	41
74.8330000000	43
74.8630000000	44
74.8930000000	53
74.9230000000	48
74.9530000000	48
74.9830000000	47
75.0130000000	52
75.0430000000	41
75.0730000000	45
75.1030000000	56
75.1330000000	58
75.1630000000	46
75.1930000000	40
75.2230000000	59
75.2530000000	58
75.2830000000	48
75.3130000000	62
75.3430000000	64
75.3730000000	99
75.4030000000	112
75.4330000000	110
75.4630000000	170
75.4930000000	217
75.5230000000	268
75.5530000000	279
75.5830000000	271
75.6130000000	244
75.6430000000	218
75.6730000000	211
75.7030000000	196
75.7330000000	199
75.7630000000	211
75.7930000000	145
75.8230000000	139
75.8530000000	108
75.8830000000	80
75.9130000000	68
75.9430000000	59
75.9730000000	60
76.0030000000	44
76.0330000000	45
76.0630000000	53
76.0930000000	48
76.1230000000	46
76.1530000000	47
76.1830000000	45
76.2130000000	50
76.2430000000	49
76.2730000000	39
76.3030000000	54
76.3330000000	42
76.3630000000	35
76.3930000000	45
76.4230000000	43
76.4530000000	49
76.4830000000	42
76.5130000000	36
76.5430000000	39
76.5730000000	46
76.6030000000	39
76.6330000000	41
76.6630000000	40
76.6930000000	41
76.7230000000	44
76.7530000000	45
76.7830000000	45
76.8130000000	40
76.8430000000	57
76.8730000000	48
76.9030000000	47
76.9330000000	41
76.9630000000	54
76.9930000000	41
77.0230000000	40
77.0530000000	46
77.0830000000	45
77.1130000000	47
77.1430000000	56
77.1730000000	42
77.2030000000	35
77.2330000000	44
77.2630000000	42
77.2930000000	48
77.3230000000	51
77.3530000000	38
77.3830000000	41
77.4130000000	45
77.4430000000	38
77.4730000000	42
77.5030000000	43
77.5330000000	49
77.5630000000	33
77.5930000000	42
77.6230000000	42
77.6530000000	42
77.6830000000	51
77.7130000000	49
77.7430000000	40
77.7730000000	41
77.8030000000	48
77.8330000000	38
77.8630000000	48
77.8930000000	44
77.9230000000	41
77.9530000000	42
77.9830000000	52
78.0130000000	38
78.0430000000	40
78.0730000000	47
78.1030000000	41
78.1330000000	37
78.1630000000	45
78.1930000000	48
78.2230000000	43
78.2530000000	46
78.2830000000	46
78.3130000000	42
78.3430000000	36
78.3730000000	28
78.4030000000	42
78.4330000000	43
78.4630000000	50
78.4930000000	48
78.5230000000	36
78.5530000000	48
78.5830000000	42
78.6130000000	45
78.6430000000	37
78.6730000000	39
78.7030000000	36
78.7330000000	29
78.7630000000	32
78.7930000000	26
78.8230000000	43
78.8530000000	46
78.8830000000	42
78.9130000000	40
78.9430000000	45
78.9730000000	50
79.0030000000	55
79.0330000000	41
79.0630000000	41
79.0930000000	43
79.1230000000	34
79.1530000000	43
79.1830000000	51
79.2130000000	51
79.2430000000	43
79.2730000000	38
79.3030000000	41
79.3330000000	39
79.3630000000	38
79.3930000000	40
79.4230000000	36
79.4530000000	35
79.4830000000	50
79.5130000000	34
79.5430000000	39
79.5730000000	34
79.6030000000	41
79.6330000000	34
79.6630000000	52
79.6930000000	32
79.7230000000	40
79.7530000000	40
79.7830000000	56
79.8130000000	54
79.8430000000	39
79.8730000000	50
79.9030000000	27
79.9330000000	37
79.9630000000	49
79.9930000000	37
80.0230000000	38
80.0530000000	44
80.0830000000	45
80.1130000000	47
80.1430000000	42
80.1730000000	37
80.2030000000	42
80.2330000000	47
80.2630000000	47
80.2930000000	37
80.3230000000	32
80.3530000000	41
80.3830000000	40
80.4130000000	44
80.4430000000	41
80.4730000000	39
80.5030000000	39
80.5330000000	38
80.5630000000	32
80.5930000000	45
80.6230000000	49
80.6530000000	33
80.6830000000	37
80.7130000000	46
80.7430000000	26
80.7730000000	49
80.8030000000	53
80.8330000000	43
80.8630000000	37
80.8930000000	29
80.9230000000	42
80.9530000000	41
80.9830000000	30
81.0130000000	37
81.0430000000	44
81.0730000000	39
81.1030000000	40
81.1330000000	49
81.1630000000	37
81.1930000000	33
81.2230000000	42
81.2530000000	38
81.2830000000	48
81.3130000000	43
81.3430000000	38
81.3730000000	44
81.4030000000	34
81.4330000000	44
81.4630000000	41
81.4930000000	41
81.5230000000	39
81.5530000000	39
81.5830000000	41
81.6130000000	36
81.6430000000	44
81.6730000000	41
81.7030000000	44
81.7330000000	48
81.7630000000	49
81.7930000000	43
81.8230000000	43
81.8530000000	33
81.8830000000	40
81.9130000000	44
81.9430000000	38
81.9730000000	44
82.0030000000	49
82.0330000000	44
82.0630000000	39
82.0930000000	45
82.1230000000	38
82.1530000000	31
82.1830000000	31
82.2130000000	36
82.2430000000	33
82.2730000000	31
82.3030000000	39
82.3330000000	45
82.3630000000	40
82.3930000000	38
82.4230000000	32
82.4530000000	35
82.4830000000	37
82.5130000000	37
82.5430000000	40
82.5730000000	30
82.6030000000	40
82.6330000000	47
82.6630000000	36
82.6930000000	26
82.7230000000	27
82.7530000000	33
82.7830000000	34
82.8130000000	42
82.8430000000	42
82.8730000000	38
82.9030000000	34
82.9330000000	35
82.9630000000	41
82.9930000000	44
83.0230000000	37
83.0530000000	56
83.0830000000	45
83.1130000000	38
83.1430000000	35
83.1730000000	42
83.2030000000	34
83.2330000000	31
83.2630000000	35
83.2930000000	35
83.3230000000	36
83.3530000000	40
83.3830000000	44
83.4130000000	43
83.4430000000	40
83.4730000000	31
83.5030000000	39
83.5330000000	37
83.5630000000	37
83.5930000000	33
83.6230000000	45
83.6530000000	46
83.6830000000	31
83.7130000000	47
83.7430000000	43
83.7730000000	36
83.8030000000	27
83.8330000000	34
83.8630000000	36
83.8930000000	41
83.9230000000	34
83.9530000000	49
83.9830000000	50
84.0130000000	48
84.0430000000	56
84.0730000000	46
84.1030000000	46
84.1330000000	35
84.1630000000	59
84.1930000000	52
84.2230000000	36
84.2530000000	44
84.2830000000	40
84.3130000000	41
84.3430000000	40
84.3730000000	28
84.4030000000	37
84.4330000000	35
84.4630000000	43
84.4930000000	52
84.5230000000	38
84.5530000000	23
84.5830000000	32
84.6130000000	39
84.6430000000	33
84.6730000000	31
84.7030000000	46
84.7330000000	34
84.7630000000	45
84.7930000000	43
84.8230000000	30
84.8530000000	39
84.8830000000	44
84.9130000000	33
84.9430000000	46
84.9730000000	34
85.0030000000	40
85.0330000000	43
85.0630000000	38
85.0930000000	41
85.1230000000	33
85.1530000000	35
85.1830000000	38
85.2130000000	36
85.2430000000	35
85.2730000000	49
85.3030000000	30
85.3330000000	41
85.3630000000	29
85.3930000000	38
85.4230000000	24
85.4530000000	35
85.4830000000	47
85.5130000000	38
85.5430000000	38
85.5730000000	34
85.6030000000	54
85.6330000000	35
85.6630000000	39
85.6930000000	29
85.7230000000	49
85.7530000000	37
85.7830000000	31
85.8130000000	34
85.8430000000	46
85.8730000000	37
85.9030000000	40
85.9330000000	35
85.9630000000	47
85.9930000000	36
86.0230000000	36
86.0530000000	33
86.0830000000	37
86.1130000000	41
86.1430000000	46
86.1730000000	33
86.2030000000	41
86.2330000000	44
86.2630000000	50
86.2930000000	37
86.3230000000	42
86.3530000000	35
86.3830000000	41
86.4130000000	37
86.4430000000	31
86.4730000000	36
86.5030000000	41
86.5330000000	34
86.5630000000	41
86.5930000000	43
86.6230000000	39
86.6530000000	42
86.6830000000	46
86.7130000000	54
86.7430000000	41
86.7730000000	45
86.8030000000	45
86.8330000000	41
86.8630000000	47
86.8930000000	56
86.9230000000	58
86.9530000000	49
86.9830000000	42
87.0130000000	44
87.0430000000	48
87.0730000000	40
87.1030000000	36
87.1330000000	42
87.1630000000	41
87.1930000000	37
87.2230000000	33
87.2530000000	34
87.2830000000	43
87.3130000000	44
87.3430000000	37
87.3730000000	47
87.4030000000	43
87.4330000000	36
87.4630000000	38
87.4930000000	33
87.5230000000	42
87.5530000000	33
87.5830000000	42
87.6130000000	46
87.6430000000	37
87.6730000000	44
87.7030000000	36
87.7330000000	39
87.7630000000	36
87.7930000000	31
87.8230000000	28
87.8530000000	33
87.8830000000	35
87.9130000000	29
87.9430000000	34
87.9730000000	45
88.0030000000	41
88.0330000000	50
88.0630000000	39
88.0930000000	38
88.1230000000	52
88.1530000000	46
88.1830000000	28
88.2130000000	29
88.2430000000	43
88.2730000000	40
88.3030000000	39
88.3330000000	37
88.3630000000	36
88.3930000000	52
88.4230000000	43
88.4530000000	53
88.4830000000	48
88.5130000000	63
88.5430000000	61
88.5730000000	48
88.6030000000	54
88.6330000000	47
88.6630000000	56
88.6930000000	38
88.7230000000	49
88.7530000000	47
88.7830000000	42
88.8130000000	49
88.8430000000	44
88.8730000000	58
88.9030000000	45
88.9330000000	44
88.9630000000	49
88.9930000000	37
89.0230000000	32
89.0530000000	53
89.0830000000	28
89.1130000000	26
89.1430000000	41
89.1730000000	41
89.2030000000	42
89.2330000000	48
89.2630000000	30
89.2930000000	40
89.3230000000	38
89.3530000000	37
89.3830000000	43
89.4130000000	49
89.4430000000	44
89.4730000000	38
89.5030000000	30
89.5330000000	25
89.5630000000	37
89.5930000000	33
89.6230000000	31
89.6530000000	41
89.6830000000	47
89.7130000000	49
89.7430000000	44
89.7730000000	38
89.8030000000	43
89.8330000000	42
89.8630000000	38
89.8930000000	47
89.9230000000	40
89.9530000000	36
89.9830000000	47
90.0130000000	44
90.0430000000	35
90.0730000000	41
90.1030000000	38
90.1330000000	49
90.1630000000	45
90.1930000000	43
90.2230000000	38
90.2530000000	41
90.2830000000	46
90.3130000000	46
90.3430000000	58
90.3730000000	43
90.4030000000	35
90.4330000000	46
90.4630000000	29
90.4930000000	36
90.5230000000	37
90.5530000000	40
90.5830000000	49
90.6130000000	39
90.6430000000	40
90.6730000000	29
90.7030000000	46
90.7330000000	33
90.7630000000	38
90.7930000000	44
90.8230000000	31
90.8530000000	36
90.8830000000	32
90.9130000000	44
90.9430000000	48
90.9730000000	40
91.0030000000	40
91.0330000000	32
91.0630000000	40
91.0930000000	38
91.1230000000	39
91.1530000000	44
91.1830000000	39
91.2130000000	43
91.2430000000	34
91.2730000000	32
91.3030000000	43
91.3330000000	51
91.3630000000	47
91.3930000000	39
91.4230000000	34
91.4530000000	40
91.4830000000	36
91.5130000000	39
91.5430000000	46
91.5730000000	39
91.6030000000	36
91.6330000000	40
91.6630000000	41
91.6930000000	43
91.7230000000	41
91.7530000000	37
91.7830000000	44
91.8130000000	40
91.8430000000	43
91.8730000000	48
91.9030000000	47
91.9330000000	29
91.9630000000	37
91.9930000000	41
92.0230000000	46
92.0530000000	35
92.0830000000	57
92.1130000000	36
92.1430000000	43
92.1730000000	40
92.2030000000	30
92.2330000000	32
92.2630000000	33
92.2930000000	39
92.3230000000	39
92.3530000000	35
92.3830000000	48
92.4130000000	47
92.4430000000	40
92.4730000000	45
92.5030000000	39
92.5330000000	42
92.5630000000	41
92.5930000000	42
92.6230000000	43
92.6530000000	45
92.6830000000	41
92.7130000000	41
92.7430000000	46
92.7730000000	43
92.8030000000	50
92.8330000000	50
92.8630000000	37
92.8930000000	46
92.9230000000	46
92.9530000000	38
92.9830000000	36
93.0130000000	40
93.0430000000	35
93.0730000000	37
93.1030000000	38
93.1330000000	45
93.1630000000	44
93.1930000000	36
93.2230000000	36
93.2530000000	39
93.2830000000	37
93.3130000000	39
93.3430000000	49
93.3730000000	39
93.4030000000	47
93.4330000000	41
93.4630000000	37
93.4930000000	42
93.5230000000	41
93.5530000000	35
93.5830000000	44
93.6130000000	48
93.6430000000	49
93.6730000000	35
93.7030000000	40
93.7330000000	40
93.7630000000	37
93.7930000000	39
93.8230000000	41
93.8530000000	37
93.8830000000	37
93.9130000000	29
93.9430000000	44
93.9730000000	39
94.0030000000	42
94.0330000000	49
94.0630000000	43
94.0930000000	31
94.1230000000	35
94.1530000000	36
94.1830000000	36
94.2130000000	44
94.2430000000	48
94.2730000000	50
94.3030000000	42
94.3330000000	47
94.3630000000	45
94.3930000000	41
94.4230000000	49
94.4530000000	55
94.4830000000	77
94.5130000000	79
94.5430000000	62
94.5730000000	54
94.6030000000	56
94.6330000000	59
94.6630000000	58
94.6930000000	51
94.7230000000	44
94.7530000000	55
94.7830000000	61
94.8130000000	49
94.8430000000	59
94.8730000000	40
94.9030000000	40
94.9330000000	34
94.9630000000	43
94.9930000000	37
95.0230000000	31
95.0530000000	40
95.0830000000	42
95.1130000000	48
95.1430000000	40
95.1730000000	40
95.2030000000	42
95.2330000000	36
95.2630000000	39
95.2930000000	45
95.3230000000	43
95.3530000000	40
95.3830000000	34
95.4130000000	41
95.4430000000	55
95.4730000000	48
95.5030000000	35
95.5330000000	42
95.5630000000	39
95.5930000000	50
95.6230000000	23
95.6530000000	44
95.6830000000	39
95.7130000000	34
95.7430000000	44
95.7730000000	45
95.8030000000	45
95.8330000000	39
95.8630000000	32
95.8930000000	37
95.9230000000	33
95.9530000000	37
95.9830000000	37
96.0130000000	46
96.0430000000	44
96.0730000000	35
96.1030000000	41
96.1330000000	40
96.1630000000	35
96.1930000000	45
96.2230000000	46
96.2530000000	43
96.2830000000	28
96.3130000000	27
96.3430000000	33
96.3730000000	43
96.4030000000	43
96.4330000000	36
96.4630000000	35
96.4930000000	43
96.5230000000	36
96.5530000000	40
96.5830000000	36
96.6130000000	29
96.6430000000	37
96.6730000000	45
96.7030000000	36
96.7330000000	34
96.7630000000	46
96.7930000000	36
96.8230000000	38
96.8530000000	40
96.8830000000	40
96.9130000000	36
96.9430000000	40
96.9730000000	39
97.0030000000	46
97.0330000000	47
97.0630000000	48
97.0930000000	44
97.1230000000	43
97.1530000000	37
97.1830000000	35
97.2130000000	41
97.2430000000	52
97.2730000000	31
97.3030000000	44
97.3330000000	48
97.3630000000	40
97.3930000000	49
97.4230000000	42
97.4530000000	36
97.4830000000	51
97.5130000000	38
97.5430000000	37
97.5730000000	37
97.6030000000	39
97.6330000000	46
97.6630000000	56
97.6930000000	43
97.7230000000	33
97.7530000000	42
97.7830000000	33
97.8130000000	28
97.8430000000	38
97.8730000000	36
97.9030000000	33
97.9330000000	42
97.9630000000	45
97.9930000000	41
98.0230000000	48
98.0530000000	52
98.0830000000	32
98.1130000000	40
98.1430000000	24
98.1730000000	32
98.2030000000	39
98.2330000000	38
98.2630000000	50
98.2930000000	36
98.3230000000	34
98.3530000000	43
98.3830000000	41
98.4130000000	50
98.4430000000	44
98.4730000000	29
98.5030000000	33
98.5330000000	35
98.5630000000	36
98.5930000000	37
98.6230000000	33
98.6530000000	30
98.6830000000	43
98.7130000000	40
98.7430000000	28
98.7730000000	29
98.8030000000	30
98.8330000000	39
98.8630000000	54
98.8930000000	30
98.9230000000	42
98.9530000000	45
98.9830000000	44
99.0130000000	45
99.0430000000	49
99.0730000000	38
99.1030000000	36
99.1330000000	34
99.1630000000	40
99.1930000000	33
99.2230000000	42
99.2530000000	40
99.2830000000	36
99.3130000000	33
99.3430000000	39
99.3730000000	48
99.4030000000	26
99.4330000000	41
99.4630000000	38
99.4930000000	48
99.5230000000	51
99.5530000000	36
99.5830000000	37
99.6130000000	35
99.6430000000	42
99.6730000000	37
99.7030000000	36
99.7330000000	36
99.7630000000	31
99.7930000000	36
99.8230000000	34
99.8530000000	37
99.8830000000	34
99.9130000000	36
99.9430000000	37
99.9730000000	34
100.0030000000	40
100.0330000000	40
100.0630000000	48
100.0930000000	39
100.1230000000	44
100.1530000000	48
100.1830000000	40
100.2130000000	37
100.2430000000	28
100.2730000000	33
100.3030000000	38
100.3330000000	27
100.3630000000	29
100.3930000000	45
100.4230000000	32
100.4530000000	41
100.4830000000	45
100.5130000000	35
100.5430000000	35
100.5730000000	45
100.6030000000	35
100.6330000000	44
100.6630000000	34
100.6930000000	39
100.7230000000	47
100.7530000000	30
100.7830000000	51
100.8130000000	32
100.8430000000	33
100.8730000000	30
100.9030000000	49
100.9330000000	45
100.9630000000	50
100.9930000000	46
101.0230000000	36
101.0530000000	40
101.0830000000	37
101.1130000000	29
101.1430000000	24
101.1730000000	33
101.2030000000	34
101.2330000000	30
101.2630000000	30
101.2930000000	42
101.3230000000	38
101.3530000000	43
101.3830000000	39
101.4130000000	49
101.4430000000	42
101.4730000000	29
101.5030000000	42
101.5330000000	37
101.5630000000	29
101.5930000000	35
101.6230000000	39
101.6530000000	39
101.6830000000	41
101.7130000000	42
101.7430000000	27
101.7730000000	29
101.8030000000	27
101.8330000000	31
101.8630000000	35
101.8930000000	32
101.9230000000	38
101.9530000000	36
101.9830000000	41
102.0130000000	42
102.0430000000	35
102.0730000000	31
102.1030000000	39
102.1330000000	38
102.1630000000	51
102.1930000000	44
102.2230000000	39
102.2530000000	35
102.2830000000	39
102.3130000000	31
102.3430000000	28
102.3730000000	55
102.4030000000	34
102.4330000000	29
102.4630000000	42
102.4930000000	41
102.5230000000	50
102.5530000000	29
102.5830000000	35
102.6130000000	43
102.6430000000	33
102.6730000000	41
102.7030000000	38
102.7330000000	34
102.7630000000	39
102.7930000000	40
102.8230000000	41
102.8530000000	50
102.8830000000	60
102.9130000000	67
102.9430000000	61
102.9730000000	62
103.0030000000	59
103.0330000000	57
103.0630000000	57
103.0930000000	50
103.1230000000	46
103.1530000000	39
103.1830000000	37
103.2130000000	37
103.2430000000	47
103.2730000000	53
103.3030000000	49
103.3330000000	53
103.3630000000	44
103.3930000000	42
103.4230000000	39
103.4530000000	58
103.4830000000	37
103.5130000000	30
103.5430000000	31
103.5730000000	37
103.6030000000	34
103.6330000000	38
103.6630000000	43
103.6930000000	43
103.7230000000	43
103.7530000000	42
103.7830000000	47
103.8130000000	27
103.8430000000	40
103.8730000000	45
103.9030000000	34
103.9330000000	44
103.9630000000	46
103.9930000000	43
104.0230000000	43
104.0530000000	40
104.0830000000	34
104.1130000000	32
104.1430000000	37
104.1730000000	30
104.2030000000	50
104.2330000000	47
104.2630000000	43
104.2930000000	52
104.3230000000	46
104.3530000000	43
104.3830000000	46
104.4130000000	33
104.4430000000	39
104.4730000000	36
104.5030000000	33
104.5330000000	46
104.5630000000	35
104.5930000000	38
104.6230000000	44
104.6530000000	36
104.6830000000	40
104.7130000000	43
104.7430000000	38
104.7730000000	36
104.8030000000	32
104.8330000000	29
104.8630000000	32
104.8930000000	41
104.9230000000	38
104.9530000000	29
104.9830000000	32
105.0130000000	39
105.0430000000	46
105.0730000000	40
105.1030000000	40
105.1330000000	38
105.1630000000	33
105.1930000000	43
105.2230000000	46
105.2530000000	37
105.2830000000	37
105.3130000000	32
105.3430000000	42
105.3730000000	34
105.4030000000	42
105.4330000000	39
105.4630000000	49
105.4930000000	33
105.5230000000	33
105.5530000000	25
105.5830000000	39
105.6130000000	39
105.6430000000	39
105.6730000000	49
105.7030000000	38
105.7330000000	37
105.7630000000	28
105.7930000000	35
105.8230000000	45
105.8530000000	38
105.8830000000	38
105.9130000000	29
105.9430000000	39
105.9730000000	34
106.0030000000	31
106.0330000000	37
106.0630000000	43
106.0930000000	38
106.1230000000	47
106.1530000000	36
106.1830000000	45
106.2130000000	33
106.2430000000	28
106.2730000000	44
106.3030000000	39
106.3330000000	34
106.3630000000	42
106.3930000000	45
106.4230000000	36
106.4530000000	39
106.4830000000	42
106.5130000000	38
106.5430000000	43
106.5730000000	33
106.6030000000	28
106.6330000000	41
106.6630000000	37
106.6930000000	42
106.7230000000	35
106.7530000000	32
106.7830000000	36
106.8130000000	41
106.8430000000	40
106.8730000000	38
106.9030000000	35
106.9330000000	42
106.9630000000	44
106.9930000000	38
107.0230000000	39
107.0530000000	35
107.0830000000	39
107.1130000000	42
107.1430000000	43
107.1730000000	42
107.2030000000	38
107.2330000000	43
107.2630000000	45
107.2930000000	38
107.3230000000	35
107.3530000000	33
107.3830000000	40
107.4130000000	34
107.4430000000	38
107.4730000000	39
107.5030000000	42
107.5330000000	43
107.5630000000	39
107.5930000000	35
107.6230000000	38
107.6530000000	29
107.6830000000	39
107.7130000000	38
107.7430000000	37
107.7730000000	37
107.8030000000	33
107.8330000000	47
107.8630000000	42
107.8930000000	39
107.9230000000	38
107.9530000000	31
107.9830000000	41
108.0130000000	27
108.0430000000	28
108.0730000000	42
108.1030000000	42
108.1330000000	38
108.1630000000	33
108.1930000000	37
108.2230000000	25
108.2530000000	38
108.2830000000	35
108.3130000000	32
108.3430000000	31
108.3730000000	37
108.4030000000	37
108.4330000000	36
108.4630000000	34
108.4930000000	30
108.5230000000	38
108.5530000000	45
108.5830000000	46
108.6130000000	30
108.6430000000	28
108.6730000000	40
108.7030000000	37
108.7330000000	36
108.7630000000	30
108.7930000000	32
108.8230000000	35
108.8530000000	37
108.8830000000	43
108.9130000000	41
108.9430000000	35
108.9730000000	38
109.0030000000	34
109.0330000000	24
109.0630000000	36
109.0930000000	48
109.1230000000	41
109.1530000000	39
109.1830000000	28
109.2130000000	35
109.2430000000	36
109.2730000000	38
109.3030000000	42
109.3330000000	39
109.3630000000	38
109.3930000000	32
109.4230000000	35
109.4530000000	45
109.4830000000	39
109.5130000000	39
109.5430000000	47
109.5730000000	50
109.6030000000	28
109.6330000000	52
109.6630000000	35
109.6930000000	35
109.7230000000	31
109.7530000000	45
109.7830000000	41
109.8130000000	32
109.8430000000	39
109.8730000000	37
109.9030000000	46
109.9330000000	33
109.9630000000	42
109.9930000000	36
110.0230000000	31
110.0530000000	43
110.0830000000	36
110.1130000000	34
110.1430000000	34
110.1730000000	32
110.2030000000	34
110.2330000000	33
110.2630000000	41
110.2930000000	40
110.3230000000	44
110.3530000000	32
110.3830000000	34
110.4130000000	32
110.4430000000	32
110.4730000000	34
110.5030000000	40
110.5330000000	38
110.5630000000	47
110.5930000000	41
110.6230000000	42
110.6530000000	38
110.6830000000	39
110.7130000000	36
110.7430000000	41
110.7730000000	40
110.8030000000	42
110.8330000000	31
110.8630000000	31
110.8930000000	40
110.9230000000	36
110.9530000000	33
110.9830000000	40
111.0130000000	49
111.0430000000	41
111.0730000000	39
111.1030000000	45
111.1330000000	46
111.1630000000	42
111.1930000000	46
111.2230000000	47
111.2530000000	28
111.2830000000	31
111.3130000000	39
111.3430000000	38
111.3730000000	39
111.4030000000	39
111.4330000000	42
111.4630000000	41
111.4930000000	34
111.5230000000	41
111.5530000000	29
111.5830000000	33
111.6130000000	36
111.6430000000	34
111.6730000000	39
111.7030000000	39
111.7330000000	35
111.7630000000	41
111.7930000000	43
111.8230000000	42
111.8530000000	34
111.8830000000	32
111.9130000000	34
111.9430000000	38
111.9730000000	30
112.0030000000	33
112.0330000000	45
112.0630000000	43
112.0930000000	38
112.1230000000	48
112.1530000000	35
112.1830000000	33
112.2130000000	38
112.2430000000	32
112.2730000000	33
112.3030000000	40
112.3330000000	35
112.3630000000	34
112.3930000000	46
112.4230000000	43
112.4530000000	37
112.4830000000	30
112.5130000000	36
112.5430000000	42
112.5730000000	38
112.6030000000	32
112.6330000000	32
112.6630000000	52
112.6930000000	47
112.7230000000	43
112.7530000000	50
112.7830000000	41
112.8130000000	30
112.8430000000	41
112.8730000000	27
112.9030000000	42
112.9330000000	33
112.9630000000	36
112.9930000000	24
113.0230000000	39
113.0530000000	37
113.0830000000	35
113.1130000000	36
113.1430000000	41
113.1730000000	34
113.2030000000	37
113.2330000000	30
113.2630000000	35
113.2930000000	44
113.3230000000	35
113.3530000000	36
113.3830000000	34
113.4130000000	34
113.4430000000	37
113.4730000000	33
113.5030000000	37
113.5330000000	37
113.5630000000	42
113.5930000000	40
113.6230000000	42
113.6530000000	34
113.6830000000	41
113.7130000000	31
113.7430000000	33
113.7730000000	41
113.8030000000	43
113.8330000000	43
113.8630000000	38
113.8930000000	38
113.9230000000	46
113.9530000000	37
113.9830000000	44
114.0130000000	46
114.0430000000	49
114.0730000000	37
114.1030000000	41
114.1330000000	38
114.1630000000	34
114.1930000000	38
114.2230000000	35
114.2530000000	35
114.2830000000	36
114.3130000000	36
114.3430000000	40
114.3730000000	34
114.4030000000	35
114.4330000000	41
114.4630000000	1
114.4930000000	1
114.5230000000	1
114.5530000000	1
114.5830000000	1
