0.3130000000	2
0.3430000000	1
0.3730000000	1
0.4030000000	1
0.4330000000	1
0.4630000000	1
0.4930000000	1
0.5230000000	1
0.5530000000	1
0.5830000000	1
0.6130000000	1
0.6430000000	2
0.6730000000	1
0.7030000000	1
0.7330000000	1
0.7630000000	1
0.7930000000	1
0.8230000000	1
0.8530000000	1
0.8830000000	1
0.9130000000	1
0.9430000000	1
0.9730000000	1
1.0030000000	1
1.0330000000	1
1.0630000000	1
1.0930000000	1
1.1230000000	1
1.1530000000	1
1.1830000000	1
1.2130000000	2
1.2430000000	1
1.2730000000	2
1.3030000000	1
1.3330000000	1
1.3630000000	1
1.3930000000	2
1.4230000000	1
1.4530000000	1
1.4830000000	1
1.5130000000	1
1.5430000000	2
1.5730000000	1
1.6030000000	1
1.6330000000	2
1.6630000000	1
1.6930000000	1
1.7230000000	2
1.7530000000	3
1.7830000000	2
1.8130000000	1
1.8430000000	2
1.8730000000	1
1.9030000000	1
1.9330000000	2
1.9630000000	1
1.9930000000	1
2.0230000000	1
2.0530000000	1
2.0830000000	1
2.1130000000	1
2.1430000000	2
2.1730000000	1
2.2030000000	1
2.2330000000	2
2.2630000000	1
2.2930000000	1
2.3230000000	1
2.3530000000	1
2.3830000000	1
2.4130000000	2
2.4430000000	2
2.4730000000	1
2.5030000000	2
2.5330000000	1
2.5630000000	2
2.5930000000	3
2.6230000000	1
2.6530000000	1
2.6830000000	2
2.7130000000	1
2.7430000000	1
2.7730000000	1
2.8030000000	1
2.8330000000	1
2.8630000000	1
2.8930000000	2
2.9230000000	4
2.9530000000	1
2.9830000000	1
3.0130000000	2
3.0430000000	2
3.0730000000	3
3.1030000000	2
3.1330000000	1
3.1630000000	1
3.1930000000	2
3.2230000000	2
3.2530000000	2
3.2830000000	2
3.3130000000	3
3.3430000000	1
3.3730000000	2
3.4030000000	7
3.4330000000	0
3.4630000000	2
3.4930000000	1
3.5230000000	2
3.5530000000	2
3.5830000000	1
3.6130000000	1
3.6430000000	1
3.6730000000	1
3.7030000000	1
3.7330000000	1
3.7630000000	2
3.7930000000	3
3.8230000000	2
3.8530000000	2
3.8830000000	3
3.9130000000	2
3.9430000000	1
3.9730000000	2
4.0030000000	5
4.0330000000	2
4.0630000000	3
4.0930000000	4
4.1230000000	1
4.1530000000	6
4.1830000000	2
4.2130000000	2
4.2430000000	2
4.2730000000	4
4.3030000000	5
4.3330000000	3
4.3630000000	4
4.3930000000	4
4.4230000000	10
4.4530000000	6
4.4830000000	15
4.5130000000	22
4.5430000000	35
4.5730000000	57
4.6030000000	82
4.6330000000	108
4.6630000000	113
4.6930000000	135
4.7230000000	130
4.7530000000	142
4.7830000000	156
4.8130000000	141
4.8430000000	133
4.8730000000	137
4.9030000000	153
4.9330000000	139
4.9630000000	167
4.9930000000	138
5.0230000000	171
5.0530000000	154
5.0830000000	136
5.1130000000	147
5.1430000000	151
5.1730000000	135
5.2030000000	150
5.2330000000	140
5.2630000000	152
5.2930000000	128
5.3230000000	142
5.3530000000	150
5.3830000000	116
5.4130000000	134
5.4430000000	134
5.4730000000	143
5.5030000000	143
5.5330000000	147
5.5630000000	140
5.5930000000	136
5.6230000000	130
5.6530000000	149
5.6830000000	135
5.7130000000	149
5.7430000000	132
5.7730000000	145
5.8030000000	163
5.8330000000	157
5.8630000000	136
5.8930000000	152
5.9230000000	136
5.9530000000	135
5.9830000000	161
6.0130000000	143
6.0430000000	124
6.0730000000	148
6.1030000000	158
6.1330000000	141
6.1630000000	150
6.1930000000	157
6.2230000000	151
6.2530000000	167
6.2830000000	151
6.3130000000	157
6.3430000000	148
6.3730000000	155
6.4030000000	153
6.4330000000	129
6.4630000000	154
6.4930000000	135
6.5230000000	141
6.5530000000	154
6.5830000000	162
6.6130000000	154
6.6430000000	169
6.6730000000	156
6.7030000000	143
6.7330000000	146
6.7630000000	131
6.7930000000	164
6.8230000000	167
6.8530000000	137
6.8830000000	125
6.9130000000	161
6.9430000000	162
6.9730000000	142
7.0030000000	156
7.0330000000	134
7.0630000000	150
7.0930000000	134
7.1230000000	139
7.1530000000	151
7.1830000000	154
7.2130000000	162
7.2430000000	148
7.2730000000	138
7.3030000000	127
7.3330000000	136
7.3630000000	154
7.3930000000	140
7.4230000000	139
7.4530000000	139
7.4830000000	142
7.5130000000	147
7.5430000000	151
7.5730000000	147
7.6030000000	136
7.6330000000	137
7.6630000000	140
7.6930000000	148
7.7230000000	146
7.7530000000	145
7.7830000000	154
7.8130000000	156
7.8430000000	144
7.8730000000	122
7.9030000000	135
7.9330000000	151
7.9630000000	142
7.9930000000	142
8.0230000000	130
8.0530000000	131
8.0830000000	157
8.1130000000	133
8.1430000000	139
8.1730000000	144
8.2030000000	132
8.2330000000	140
8.2630000000	151
8.2930000000	141
8.3230000000	142
8.3530000000	156
8.3830000000	143
8.4130000000	121
8.4430000000	150
8.4730000000	163
8.5030000000	162
8.5330000000	122
8.5630000000	132
8.5930000000	149
8.6230000000	164
8.6530000000	139
8.6830000000	128
8.7130000000	154
8.7430000000	141
8.7730000000	160
8.8030000000	150
8.8330000000	142
8.8630000000	120
8.8930000000	163
8.9230000000	145
8.9530000000	152
8.9830000000	154
9.0130000000	127
9.0430000000	148
9.0730000000	151
9.1030000000	140
9.1330000000	157
9.1630000000	146
9.1930000000	131
9.2230000000	128
9.2530000000	144
9.2830000000	131
9.3130000000	118
9.3430000000	130
9.3730000000	131
9.4030000000	152
9.4330000000	143
9.4630000000	162
9.4930000000	156
9.5230000000	135
9.5530000000	151
9.5830000000	141
9.6130000000	156
9.6430000000	139
9.6730000000	154
9.7030000000	135
9.7330000000	165
9.7630000000	156
9.7930000000	146
9.8230000000	161
9.8530000000	142
9.8830000000	138
9.9130000000	129
9.9430000000	136
9.9730000000	130
10.0030000000	155
10.0330000000	159
10.0630000000	139
10.0930000000	157
10.1230000000	161
10.1530000000	130
10.1830000000	143
10.2130000000	162
10.2430000000	151
10.2730000000	154
10.3030000000	155
10.3330000000	169
10.3630000000	121
10.3930000000	145
10.4230000000	156
10.4530000000	145
10.4830000000	152
10.5130000000	161
10.5430000000	150
10.5730000000	133
10.6030000000	131
10.6330000000	155
10.6630000000	151
10.6930000000	121
10.7230000000	133
10.7530000000	137
10.7830000000	139
10.8130000000	154
10.8430000000	154
10.8730000000	145
10.9030000000	138
10.9330000000	139
10.9630000000	145
10.9930000000	153
11.0230000000	141
11.0530000000	143
11.0830000000	131
11.1130000000	137
11.1430000000	148
11.1730000000	146
11.2030000000	155
11.2330000000	150
11.2630000000	147
11.2930000000	159
11.3230000000	158
11.3530000000	124
11.3830000000	129
11.4130000000	151
11.4430000000	146
11.4730000000	140
11.5030000000	133
11.5330000000	145
11.5630000000	154
11.5930000000	146
11.6230000000	154
11.6530000000	125
11.6830000000	149
11.7130000000	147
11.7430000000	142
11.7730000000	144
11.8030000000	133
11.8330000000	151
11.8630000000	135
11.8930000000	130
11.9230000000	140
11.9530000000	125
11.9830000000	141
12.0130000000	150
12.0430000000	156
12.0730000000	146
12.1030000000	134
12.1330000000	145
12.1630000000	158
12.1930000000	148
12.2230000000	147
12.2530000000	138
12.2830000000	152
12.3130000000	132
12.3430000000	151
12.3730000000	150
12.4030000000	152
12.4330000000	131
12.4630000000	153
12.4930000000	152
12.5230000000	156
12.5530000000	153
12.5830000000	140
12.6130000000	136
12.6430000000	148
12.6730000000	165
12.7030000000	141
12.7330000000	141
12.7630000000	161
12.7930000000	158
12.8230000000	162
12.8530000000	182
12.8830000000	157
12.9130000000	142
12.9430000000	154
12.9730000000	135
13.0030000000	134
13.0330000000	154
13.0630000000	162
13.0930000000	148
13.1230000000	131
13.1530000000	141
13.1830000000	148
13.2130000000	176
13.2430000000	146
13.2730000000	137
13.3030000000	154
13.3330000000	141
13.3630000000	118
13.3930000000	132
13.4230000000	155
13.4530000000	141
13.4830000000	150
13.5130000000	147
13.5430000000	145
13.5730000000	136
13.6030000000	134
13.6330000000	146
13.6630000000	155
13.6930000000	159
13.7230000000	123
13.7530000000	133
13.7830000000	160
13.8130000000	142
13.8430000000	135
13.8730000000	142
13.9030000000	130
13.9330000000	144
13.9630000000	145
13.9930000000	122
14.0230000000	138
14.0530000000	136
14.0830000000	123
14.1130000000	161
14.1430000000	114
14.1730000000	148
14.2030000000	146
14.2330000000	150
14.2630000000	137
14.2930000000	156
14.3230000000	155
14.3530000000	138
14.3830000000	136
14.4130000000	137
14.4430000000	145
14.4730000000	132
14.5030000000	146
14.5330000000	135
14.5630000000	149
14.5930000000	143
14.6230000000	151
14.6530000000	139
14.6830000000	145
14.7130000000	155
14.7430000000	141
14.7730000000	184
14.8030000000	173
14.8330000000	149
14.8630000000	143
14.8930000000	167
14.9230000000	146
14.9530000000	149
14.9830000000	147
15.0130000000	158
15.0430000000	142
15.0730000000	155
15.1030000000	158
15.1330000000	139
15.1630000000	158
15.1930000000	159
15.2230000000	157
15.2530000000	175
15.2830000000	155
15.3130000000	130
15.3430000000	147
15.3730000000	161
15.4030000000	156
15.4330000000	139
15.4630000000	173
15.4930000000	138
15.5230000000	166
15.5530000000	147
15.5830000000	172
15.6130000000	171
15.6430000000	134
15.6730000000	139
15.7030000000	147
15.7330000000	145
15.7630000000	160
15.7930000000	133
15.8230000000	136
15.8530000000	144
15.8830000000	158
15.9130000000	142
15.9430000000	143
15.9730000000	142
16.0030000000	117
16.0330000000	144
16.0630000000	142
16.0930000000	160
16.1230000000	152
16.1530000000	136
16.1830000000	156
16.2130000000	139
16.2430000000	137
16.2730000000	148
16.3030000000	152
16.3330000000	132
16.3630000000	153
16.3930000000	158
16.4230000000	122
16.4530000000	158
16.4830000000	157
16.5130000000	135
16.5430000000	146
16.5730000000	155
16.6030000000	152
16.6330000000	152
16.6630000000	149
16.6930000000	127
16.7230000000	139
16.7530000000	145
16.7830000000	136
16.8130000000	136
16.8430000000	145
16.8730000000	136
16.9030000000	131
16.9330000000	133
16.9630000000	139
16.9930000000	160
17.0230000000	146
17.0530000000	166
17.0830000000	142
17.1130000000	149
17.1430000000	156
17.1730000000	150
17.2030000000	155
17.2330000000	125
17.2630000000	149
17.2930000000	162
17.3230000000	147
17.3530000000	143
17.3830000000	127
17.4130000000	157
17.4430000000	155
17.4730000000	157
17.5030000000	156
17.5330000000	159
17.5630000000	149
17.5930000000	128
17.6230000000	136
17.6530000000	143
17.6830000000	130
17.7130000000	141
17.7430000000	150
17.7730000000	139
17.8030000000	137
17.8330000000	138
17.8630000000	143
17.8930000000	150
17.9230000000	143
17.9530000000	136
17.9830000000	149
18.0130000000	140
18.0430000000	134
18.0730000000	165
18.1030000000	137
18.1330000000	147
18.1630000000	135
18.1930000000	148
18.2230000000	154
18.2530000000	151
18.2830000000	142
18.3130000000	165
18.3430000000	155
18.3730000000	138
18.4030000000	127
18.4330000000	150
18.4630000000	135
18.4930000000	155
18.5230000000	161
18.5530000000	136
18.5830000000	128
18.6130000000	162
18.6430000000	145
18.6730000000	149
18.7030000000	173
18.7330000000	132
18.7630000000	145
18.7930000000	138
18.8230000000	149
18.8530000000	150
18.8830000000	160
18.9130000000	149
18.9430000000	135
18.9730000000	149
19.0030000000	167
19.0330000000	155
19.0630000000	151
19.0930000000	147
19.1230000000	145
19.1530000000	144
19.1830000000	151
19.2130000000	161
19.2430000000	156
19.2730000000	145
19.3030000000	156
19.3330000000	165
19.3630000000	148
19.3930000000	182
19.4230000000	200
19.4530000000	242
19.4830000000	251
19.5130000000	300
19.5430000000	320
19.5730000000	336
19.6030000000	349
19.6330000000	333
19.6630000000	270
19.6930000000	204
19.7230000000	187
19.7530000000	204
19.7830000000	161
19.8130000000	159
19.8430000000	166
19.8730000000	141
19.9030000000	175
19.9330000000	153
19.9630000000	150
19.9930000000	150
20.0230000000	162
20.0530000000	139
20.0830000000	164
20.1130000000	163
20.1430000000	128
20.1730000000	139
20.2030000000	132
20.2330000000	147
20.2630000000	149
20.2930000000	132
20.3230000000	141
20.3530000000	159
20.3830000000	160
20.4130000000	153
20.4430000000	153
20.4730000000	151
20.5030000000	144
20.5330000000	142
20.5630000000	159
20.5930000000	170
20.6230000000	144
20.6530000000	153
20.6830000000	167
20.7130000000	152
20.7430000000	154
20.7730000000	168
20.8030000000	179
20.8330000000	144
20.8630000000	197
20.8930000000	178
20.9230000000	170
20.9530000000	168
20.9830000000	194
21.0130000000	153
21.0430000000	155
21.0730000000	171
21.1030000000	148
21.1330000000	156
21.1630000000	144
21.1930000000	164
21.2230000000	150
21.2530000000	154
21.2830000000	166
21.3130000000	169
21.3430000000	164
21.3730000000	161
21.4030000000	133
21.4330000000	137
21.4630000000	170
21.4930000000	131
21.5230000000	145
21.5530000000	152
21.5830000000	147
21.6130000000	157
21.6430000000	164
21.6730000000	165
21.7030000000	159
21.7330000000	161
21.7630000000	155
21.7930000000	149
21.8230000000	161
21.8530000000	177
21.8830000000	142
21.9130000000	161
21.9430000000	169
21.9730000000	140
22.0030000000	150
22.0330000000	168
22.0630000000	163
22.0930000000	152
22.1230000000	172
22.1530000000	169
22.1830000000	164
22.2130000000	171
22.2430000000	176
22.2730000000	163
22.3030000000	172
22.3330000000	172
22.3630000000	184
22.3930000000	171
22.4230000000	161
22.4530000000	164
22.4830000000	158
22.5130000000	160
22.5430000000	182
22.5730000000	195
22.6030000000	189
22.6330000000	202
22.6630000000	207
22.6930000000	212
22.7230000000	252
22.7530000000	249
22.7830000000	224
22.8130000000	211
22.8430000000	184
22.8730000000	212
22.9030000000	146
22.9330000000	170
22.9630000000	176
22.9930000000	170
23.0230000000	154
23.0530000000	148
23.0830000000	150
23.1130000000	138
23.1430000000	171
23.1730000000	174
23.2030000000	165
23.2330000000	160
23.2630000000	150
23.2930000000	150
23.3230000000	170
23.3530000000	166
23.3830000000	179
23.4130000000	158
23.4430000000	145
23.4730000000	174
23.5030000000	175
23.5330000000	152
23.5630000000	149
23.5930000000	154
23.6230000000	171
23.6530000000	157
23.6830000000	161
23.7130000000	174
23.7430000000	168
23.7730000000	164
23.8030000000	174
23.8330000000	177
23.8630000000	160
23.8930000000	173
23.9230000000	170
23.9530000000	155
23.9830000000	163
24.0130000000	141
24.0430000000	174
24.0730000000	143
24.1030000000	179
24.1330000000	153
24.1630000000	185
24.1930000000	178
24.2230000000	180
24.2530000000	179
24.2830000000	192
24.3130000000	179
24.3430000000	154
24.3730000000	171
24.4030000000	158
24.4330000000	172
24.4630000000	167
24.4930000000	171
24.5230000000	183
24.5530000000	163
24.5830000000	186
24.6130000000	173
24.6430000000	143
24.6730000000	177
24.7030000000	187
24.7330000000	153
24.7630000000	161
24.7930000000	182
24.8230000000	184
24.8530000000	169
24.8830000000	169
24.9130000000	160
24.9430000000	137
24.9730000000	178
25.0030000000	163
25.0330000000	164
25.0630000000	164
25.0930000000	158
25.1230000000	177
25.1530000000	145
25.1830000000	166
25.2130000000	157
25.2430000000	162
25.2730000000	173
25.3030000000	174
25.3330000000	156
25.3630000000	151
25.3930000000	142
25.4230000000	160
25.4530000000	174
25.4830000000	163
25.5130000000	168
25.5430000000	163
25.5730000000	171
25.6030000000	185
25.6330000000	192
25.6630000000	166
25.6930000000	146
25.7230000000	166
25.7530000000	154
25.7830000000	159
25.8130000000	203
25.8430000000	158
25.8730000000	189
25.9030000000	154
25.9330000000	140
25.9630000000	154
25.9930000000	171
26.0230000000	161
26.0530000000	174
26.0830000000	144
26.1130000000	158
26.1430000000	152
26.1730000000	187
26.2030000000	254
26.2330000000	272
26.2630000000	290
26.2930000000	329
26.3230000000	453
26.3530000000	599
26.3830000000	790
26.4130000000	954
26.4430000000	959
26.4730000000	872
26.5030000000	649
26.5330000000	468
26.5630000000	324
26.5930000000	253
26.6230000000	222
26.6530000000	225
26.6830000000	203
26.7130000000	193
26.7430000000	201
26.7730000000	181
26.8030000000	174
26.8330000000	170
26.8630000000	168
26.8930000000	143
26.9230000000	133
26.9530000000	139
26.9830000000	145
27.0130000000	162
27.0430000000	152
27.0730000000	134
27.1030000000	147
27.1330000000	160
27.1630000000	154
27.1930000000	156
27.2230000000	161
27.2530000000	145
27.2830000000	152
27.3130000000	149
27.3430000000	155
27.3730000000	145
27.4030000000	138
27.4330000000	158
27.4630000000	140
27.4930000000	149
27.5230000000	137
27.5530000000	150
27.5830000000	139
27.6130000000	142
27.6430000000	144
27.6730000000	134
27.7030000000	142
27.7330000000	144
27.7630000000	158
27.7930000000	147
27.8230000000	140
27.8530000000	161
27.8830000000	167
27.9130000000	151
27.9430000000	153
27.9730000000	139
28.0030000000	136
28.0330000000	152
28.0630000000	143
28.0930000000	140
28.1230000000	146
28.1530000000	180
28.1830000000	148
28.2130000000	156
28.2430000000	137
28.2730000000	138
28.3030000000	143
28.3330000000	141
28.3630000000	152
28.3930000000	136
28.4230000000	146
28.4530000000	153
28.4830000000	129
28.5130000000	151
28.5430000000	139
28.5730000000	132
28.6030000000	127
28.6330000000	139
28.6630000000	129
28.6930000000	142
28.7230000000	162
28.7530000000	147
28.7830000000	137
28.8130000000	149
28.8430000000	168
28.8730000000	179
28.9030000000	120
28.9330000000	189
28.9630000000	155
28.9930000000	148
29.0230000000	170
29.0530000000	137
29.0830000000	140
29.1130000000	137
29.1430000000	139
29.1730000000	173
29.2030000000	138
29.2330000000	132
29.2630000000	148
29.2930000000	136
29.3230000000	129
29.3530000000	137
29.3830000000	139
29.4130000000	119
29.4430000000	143
29.4730000000	135
29.5030000000	135
29.5330000000	127
29.5630000000	129
29.5930000000	140
29.6230000000	144
29.6530000000	117
29.6830000000	168
29.7130000000	114
29.7430000000	155
29.7730000000	124
29.8030000000	151
29.8330000000	147
29.8630000000	128
29.8930000000	137
29.9230000000	158
29.9530000000	158
29.9830000000	146
30.0130000000	184
30.0430000000	152
30.0730000000	154
30.1030000000	156
30.1330000000	182
30.1630000000	190
30.1930000000	245
30.2230000000	307
30.2530000000	414
30.2830000000	594
30.3130000000	928
30.3430000000	1376
30.3730000000	1953
30.4030000000	2573
30.4330000000	2815
30.4630000000	2553
30.4930000000	1921
30.5230000000	1324
30.5530000000	868
30.5830000000	550
30.6130000000	394
30.6430000000	265
30.6730000000	195
30.7030000000	164
30.7330000000	159
30.7630000000	165
30.7930000000	161
30.8230000000	144
30.8530000000	150
30.8830000000	136
30.9130000000	148
30.9430000000	133
30.9730000000	139
31.0030000000	136
31.0330000000	116
31.0630000000	149
31.0930000000	136
31.1230000000	128
31.1530000000	138
31.1830000000	118
31.2130000000	139
31.2430000000	116
31.2730000000	121
31.3030000000	148
31.3330000000	132
31.3630000000	141
31.3930000000	138
31.4230000000	140
31.4530000000	149
31.4830000000	140
31.5130000000	119
31.5430000000	133
31.5730000000	149
31.6030000000	156
31.6330000000	166
31.6630000000	202
31.6930000000	256
31.7230000000	338
31.7530000000	418
31.7830000000	641
31.8130000000	906
31.8430000000	1186
31.8730000000	1615
31.9030000000	1711
31.9330000000	1535
31.9630000000	1247
31.9930000000	1023
32.0230000000	905
32.0530000000	865
32.0830000000	921
32.1130000000	1068
32.1430000000	1212
32.1730000000	1077
32.2030000000	943
32.2330000000	683
32.2630000000	469
32.2930000000	324
32.3230000000	226
32.3530000000	186
32.3830000000	147
32.4130000000	141
32.4430000000	103
32.4730000000	124
32.5030000000	115
32.5330000000	123
32.5630000000	102
32.5930000000	109
32.6230000000	117
32.6530000000	110
32.6830000000	127
32.7130000000	106
32.7430000000	119
32.7730000000	99
32.8030000000	100
32.8330000000	124
32.8630000000	122
32.8930000000	109
32.9230000000	104
32.9530000000	118
32.9830000000	110
33.0130000000	101
33.0430000000	112
33.0730000000	120
33.1030000000	94
33.1330000000	116
33.1630000000	112
33.1930000000	113
33.2230000000	121
33.2530000000	136
33.2830000000	134
33.3130000000	128
33.3430000000	143
33.3730000000	131
33.4030000000	120
33.4330000000	111
33.4630000000	124
33.4930000000	104
33.5230000000	112
33.5530000000	112
33.5830000000	106
33.6130000000	95
33.6430000000	103
33.6730000000	101
33.7030000000	116
33.7330000000	95
33.7630000000	86
33.7930000000	99
33.8230000000	113
33.8530000000	101
33.8830000000	93
33.9130000000	103
33.9430000000	114
33.9730000000	117
34.0030000000	101
34.0330000000	112
34.0630000000	99
34.0930000000	97
34.1230000000	97
34.1530000000	111
34.1830000000	103
34.2130000000	96
34.2430000000	97
34.2730000000	99
34.3030000000	102
34.3330000000	97
34.3630000000	107
34.3930000000	97
34.4230000000	89
34.4530000000	93
34.4830000000	100
34.5130000000	87
34.5430000000	83
34.5730000000	92
34.6030000000	107
34.6330000000	104
34.6630000000	97
34.6930000000	88
34.7230000000	87
34.7530000000	110
34.7830000000	92
34.8130000000	92
34.8430000000	88
34.8730000000	96
34.9030000000	118
34.9330000000	99
34.9630000000	82
34.9930000000	101
35.0230000000	98
35.0530000000	107
35.0830000000	102
35.1130000000	113
35.1430000000	113
35.1730000000	127
35.2030000000	123
35.2330000000	157
35.2630000000	165
35.2930000000	194
35.3230000000	235
35.3530000000	262
35.3830000000	249
35.4130000000	241
35.4430000000	218
35.4730000000	167
35.5030000000	127
35.5330000000	116
35.5630000000	119
35.5930000000	113
35.6230000000	104
35.6530000000	89
35.6830000000	96
35.7130000000	101
35.7430000000	98
35.7730000000	99
35.8030000000	85
35.8330000000	107
35.8630000000	96
35.8930000000	116
35.9230000000	106
35.9530000000	102
35.9830000000	92
36.0130000000	95
36.0430000000	94
36.0730000000	93
36.1030000000	90
36.1330000000	100
36.1630000000	101
36.1930000000	86
36.2230000000	101
36.2530000000	98
36.2830000000	82
36.3130000000	101
36.3430000000	90
36.3730000000	100
36.4030000000	108
36.4330000000	108
36.4630000000	105
36.4930000000	155
36.5230000000	193
36.5530000000	226
36.5830000000	313
36.6130000000	351
36.6430000000	457
36.6730000000	418
36.7030000000	406
36.7330000000	320
36.7630000000	240
36.7930000000	191
36.8230000000	170
36.8530000000	122
36.8830000000	109
36.9130000000	122
36.9430000000	93
36.9730000000	105
37.0030000000	103
37.0330000000	111
37.0630000000	104
37.0930000000	66
37.1230000000	92
37.1530000000	83
37.1830000000	71
37.2130000000	86
37.2430000000	91
37.2730000000	105
37.3030000000	85
37.3330000000	66
37.3630000000	89
37.3930000000	87
37.4230000000	78
37.4530000000	76
37.4830000000	89
37.5130000000	76
37.5430000000	87
37.5730000000	98
37.6030000000	82
37.6330000000	74
37.6630000000	81
37.6930000000	101
37.7230000000	96
37.7530000000	70
37.7830000000	88
37.8130000000	97
37.8430000000	80
37.8730000000	94
37.9030000000	98
37.9330000000	91
37.9630000000	70
37.9930000000	67
38.0230000000	77
38.0530000000	85
38.0830000000	92
38.1130000000	97
38.1430000000	78
38.1730000000	78
38.2030000000	94
38.2330000000	96
38.2630000000	74
38.2930000000	79
38.3230000000	83
38.3530000000	82
38.3830000000	80
38.4130000000	76
38.4430000000	102
38.4730000000	85
38.5030000000	85
38.5330000000	94
38.5630000000	81
38.5930000000	91
38.6230000000	84
38.6530000000	81
38.6830000000	97
38.7130000000	100
38.7430000000	92
38.7730000000	88
38.8030000000	88
38.8330000000	88
38.8630000000	93
38.8930000000	84
38.9230000000	81
38.9530000000	104
38.9830000000	98
39.0130000000	85
39.0430000000	104
39.0730000000	84
39.1030000000	83
39.1330000000	94
39.1630000000	104
39.1930000000	84
39.2230000000	92
39.2530000000	101
39.2830000000	97
39.3130000000	82
39.3430000000	101
39.3730000000	112
39.4030000000	108
39.4330000000	122
39.4630000000	109
39.4930000000	134
39.5230000000	159
39.5530000000	176
39.5830000000	194
39.6130000000	312
39.6430000000	459
39.6730000000	626
39.7030000000	930
39.7330000000	1097
39.7630000000	1279
39.7930000000	1173
39.8230000000	1009
39.8530000000	724
39.8830000000	529
39.9130000000	381
39.9430000000	238
39.9730000000	166
40.0030000000	115
40.0330000000	108
40.0630000000	109
40.0930000000	107
40.1230000000	89
40.1530000000	82
40.1830000000	89
40.2130000000	76
40.2430000000	76
40.2730000000	80
40.3030000000	100
40.3330000000	93
40.3630000000	83
40.3930000000	80
40.4230000000	93
40.4530000000	99
40.4830000000	84
40.5130000000	74
40.5430000000	77
40.5730000000	78
40.6030000000	93
40.6330000000	82
40.6630000000	96
40.6930000000	71
40.7230000000	104
40.7530000000	95
40.7830000000	88
40.8130000000	89
40.8430000000	90
40.8730000000	77
40.9030000000	88
40.9330000000	89
40.9630000000	130
40.9930000000	107
41.0230000000	77
41.0530000000	81
41.0830000000	88
41.1130000000	86
41.1430000000	81
41.1730000000	82
41.2030000000	87
41.2330000000	98
41.2630000000	86
41.2930000000	95
41.3230000000	76
41.3530000000	97
41.3830000000	80
41.4130000000	67
41.4430000000	79
41.4730000000	80
41.5030000000	80
41.5330000000	79
41.5630000000	71
41.5930000000	86
41.6230000000	93
41.6530000000	94
41.6830000000	90
41.7130000000	87
41.7430000000	75
41.7730000000	89
41.8030000000	87
41.8330000000	67
41.8630000000	74
41.8930000000	82
41.9230000000	72
41.9530000000	74
41.9830000000	82
42.0130000000	91
42.0430000000	78
42.0730000000	67
42.1030000000	74
42.1330000000	73
42.1630000000	77
42.1930000000	83
42.2230000000	86
42.2530000000	80
42.2830000000	77
42.3130000000	80
42.3430000000	78
42.3730000000	85
42.4030000000	92
42.4330000000	84
42.4630000000	82
42.4930000000	84
42.5230000000	83
42.5530000000	91
42.5830000000	90
42.6130000000	85
42.6430000000	91
42.6730000000	86
42.7030000000	82
42.7330000000	90
42.7630000000	90
42.7930000000	94
42.8230000000	91
42.8530000000	87
42.8830000000	93
42.9130000000	88
42.9430000000	121
42.9730000000	134
43.0030000000	166
43.0330000000	201
43.0630000000	280
43.0930000000	385
43.1230000000	537
43.1530000000	789
43.1830000000	1067
43.2130000000	1329
43.2430000000	1211
43.2730000000	1077
43.3030000000	854
43.3330000000	695
43.3630000000	494
43.3930000000	335
43.4230000000	240
43.4530000000	181
43.4830000000	132
43.5130000000	121
43.5430000000	93
43.5730000000	94
43.6030000000	91
43.6330000000	104
43.6630000000	97
43.6930000000	102
43.7230000000	119
43.7530000000	129
43.7830000000	130
43.8130000000	118
43.8430000000	98
43.8730000000	98
43.9030000000	98
43.9330000000	97
43.9630000000	81
43.9930000000	77
44.0230000000	83
44.0530000000	67
44.0830000000	76
44.1130000000	80
44.1430000000	78
44.1730000000	68
44.2030000000	90
44.2330000000	82
44.2630000000	79
44.2930000000	76
44.3230000000	66
44.3530000000	60
44.3830000000	64
44.4130000000	67
44.4430000000	88
44.4730000000	88
44.5030000000	63
44.5330000000	69
44.5630000000	67
44.5930000000	49
44.6230000000	78
44.6530000000	70
44.6830000000	72
44.7130000000	77
44.7430000000	81
44.7730000000	72
44.8030000000	88
44.8330000000	104
44.8630000000	107
44.8930000000	131
44.9230000000	172
44.9530000000	221
44.9830000000	309
45.0130000000	442
45.0430000000	639
45.0730000000	718
45.1030000000	838
45.1330000000	746
45.1630000000	678
45.1930000000	569
45.2230000000	403
45.2530000000	305
45.2830000000	219
45.3130000000	149
45.3430000000	113
45.3730000000	101
45.4030000000	100
45.4330000000	85
45.4630000000	82
45.4930000000	69
45.5230000000	65
45.5530000000	71
45.5830000000	75
45.6130000000	81
45.6430000000	82
45.6730000000	77
45.7030000000	69
45.7330000000	64
45.7630000000	74
45.7930000000	96
45.8230000000	85
45.8530000000	66
45.8830000000	83
45.9130000000	85
45.9430000000	104
45.9730000000	116
46.0030000000	141
46.0330000000	158
46.0630000000	197
46.0930000000	197
46.1230000000	212
46.1530000000	174
46.1830000000	146
46.2130000000	147
46.2430000000	133
46.2730000000	79
46.3030000000	95
46.3330000000	93
46.3630000000	94
46.3930000000	87
46.4230000000	110
46.4530000000	100
46.4830000000	111
46.5130000000	117
46.5430000000	114
46.5730000000	104
46.6030000000	91
46.6330000000	86
46.6630000000	96
46.6930000000	66
46.7230000000	92
46.7530000000	77
46.7830000000	72
46.8130000000	88
46.8430000000	99
46.8730000000	122
46.9030000000	130
46.9330000000	192
46.9630000000	242
46.9930000000	304
47.0230000000	285
47.0530000000	232
47.0830000000	210
47.1130000000	176
47.1430000000	140
47.1730000000	113
47.2030000000	90
47.2330000000	68
47.2630000000	66
47.2930000000	70
47.3230000000	68
47.3530000000	65
47.3830000000	81
47.4130000000	91
47.4430000000	110
47.4730000000	75
47.5030000000	89
47.5330000000	94
47.5630000000	77
47.5930000000	80
47.6230000000	98
47.6530000000	72
47.6830000000	83
47.7130000000	75
47.7430000000	66
47.7730000000	69
47.8030000000	65
47.8330000000	51
47.8630000000	57
47.8930000000	60
47.9230000000	64
47.9530000000	46
47.9830000000	66
48.0130000000	60
48.0430000000	69
48.0730000000	58
48.1030000000	45
48.1330000000	64
48.1630000000	59
48.1930000000	53
48.2230000000	71
48.2530000000	55
48.2830000000	68
48.3130000000	56
48.3430000000	44
48.3730000000	62
48.4030000000	64
48.4330000000	60
48.4630000000	54
48.4930000000	63
48.5230000000	57
48.5530000000	54
48.5830000000	51
48.6130000000	52
48.6430000000	60
48.6730000000	56
48.7030000000	50
48.7330000000	52
48.7630000000	66
48.7930000000	56
48.8230000000	45
48.8530000000	58
48.8830000000	64
48.9130000000	62
48.9430000000	53
48.9730000000	53
49.0030000000	56
49.0330000000	54
49.0630000000	59
49.0930000000	54
49.1230000000	63
49.1530000000	44
49.1830000000	64
49.2130000000	55
49.2430000000	47
49.2730000000	56
49.3030000000	55
49.3330000000	46
49.3630000000	66
49.3930000000	67
49.4230000000	51
49.4530000000	61
49.4830000000	47
49.5130000000	36
49.5430000000	61
49.5730000000	51
49.6030000000	55
49.6330000000	68
49.6630000000	66
49.6930000000	54
49.7230000000	59
49.7530000000	54
49.7830000000	66
49.8130000000	52
49.8430000000	54
49.8730000000	63
49.9030000000	45
49.9330000000	56
49.9630000000	43
49.9930000000	62
50.0230000000	55
50.0530000000	57
50.0830000000	56
50.1130000000	53
50.1430000000	48
50.1730000000	50
50.2030000000	60
50.2330000000	53
50.2630000000	54
50.2930000000	56
50.3230000000	60
50.3530000000	63
50.3830000000	59
50.4130000000	57
50.4430000000	59
50.4730000000	86
50.5030000000	76
50.5330000000	80
50.5630000000	89
50.5930000000	86
50.6230000000	79
50.6530000000	79
50.6830000000	82
50.7130000000	71
50.7430000000	55
50.7730000000	45
50.8030000000	60
50.8330000000	55
50.8630000000	63
50.8930000000	50
50.9230000000	47
50.9530000000	49
50.9830000000	43
51.0130000000	57
51.0430000000	55
51.0730000000	57
51.1030000000	56
51.1330000000	54
51.1630000000	53
51.1930000000	52
51.2230000000	55
51.2530000000	56
51.2830000000	56
51.3130000000	53
51.3430000000	48
51.3730000000	47
51.4030000000	51
51.4330000000	48
51.4630000000	49
51.4930000000	46
51.5230000000	57
51.5530000000	47
51.5830000000	45
51.6130000000	53
51.6430000000	43
51.6730000000	59
51.7030000000	45
51.7330000000	58
51.7630000000	52
51.7930000000	59
51.8230000000	49
51.8530000000	42
51.8830000000	48
51.9130000000	50
51.9430000000	48
51.9730000000	38
52.0030000000	54
52.0330000000	59
52.0630000000	55
52.0930000000	55
52.1230000000	72
52.1530000000	83
52.1830000000	96
52.2130000000	72
52.2430000000	74
52.2730000000	69
52.3030000000	70
52.3330000000	60
52.3630000000	57
52.3930000000	54
52.4230000000	56
52.4530000000	60
52.4830000000	42
52.5130000000	50
52.5430000000	39
52.5730000000	54
52.6030000000	51
52.6330000000	62
52.6630000000	62
52.6930000000	50
52.7230000000	54
52.7530000000	56
52.7830000000	52
52.8130000000	39
52.8430000000	34
52.8730000000	48
52.9030000000	57
52.9330000000	60
52.9630000000	50
52.9930000000	36
53.0230000000	45
53.0530000000	46
53.0830000000	45
53.1130000000	52
53.1430000000	48
53.1730000000	45
53.2030000000	50
53.2330000000	52
53.2630000000	59
53.2930000000	57
53.3230000000	49
53.3530000000	55
53.3830000000	63
53.4130000000	37
53.4430000000	61
53.4730000000	42
53.5030000000	49
53.5330000000	44
53.5630000000	48
53.5930000000	57
53.6230000000	68
53.6530000000	59
53.6830000000	56
53.7130000000	54
53.7430000000	53
53.7730000000	52
53.8030000000	67
53.8330000000	85
53.8630000000	92
53.8930000000	114
53.9230000000	117
53.9530000000	108
53.9830000000	111
54.0130000000	99
54.0430000000	82
54.0730000000	82
54.1030000000	82
54.1330000000	64
54.1630000000	68
54.1930000000	47
54.2230000000	70
54.2530000000	54
54.2830000000	37
54.3130000000	51
54.3430000000	50
54.3730000000	44
54.4030000000	56
54.4330000000	64
54.4630000000	58
54.4930000000	58
54.5230000000	52
54.5530000000	55
54.5830000000	74
54.6130000000	57
54.6430000000	54
54.6730000000	53
54.7030000000	49
54.7330000000	56
54.7630000000	53
54.7930000000	45
54.8230000000	45
54.8530000000	70
54.8830000000	80
54.9130000000	68
54.9430000000	83
54.9730000000	90
55.0030000000	112
55.0330000000	113
55.0630000000	119
55.0930000000	115
55.1230000000	90
55.1530000000	92
55.1830000000	101
55.2130000000	70
55.2430000000	74
55.2730000000	65
55.3030000000	59
55.3330000000	75
55.3630000000	86
55.3930000000	97
55.4230000000	105
55.4530000000	141
55.4830000000	126
55.5130000000	124
55.5430000000	143
55.5730000000	106
55.6030000000	112
55.6330000000	79
55.6630000000	90
55.6930000000	71
55.7230000000	69
55.7530000000	69
55.7830000000	55
55.8130000000	50
55.8430000000	51
55.8730000000	55
55.9030000000	50
55.9330000000	51
55.9630000000	49
55.9930000000	49
56.0230000000	39
56.0530000000	47
56.0830000000	46
56.1130000000	52
56.1430000000	51
56.1730000000	44
56.2030000000	39
56.2330000000	34
56.2630000000	41
56.2930000000	57
56.3230000000	45
56.3530000000	43
56.3830000000	51
56.4130000000	54
56.4430000000	54
56.4730000000	50
56.5030000000	40
56.5330000000	48
56.5630000000	52
56.5930000000	42
56.6230000000	45
56.6530000000	54
56.6830000000	43
56.7130000000	50
56.7430000000	43
56.7730000000	46
56.8030000000	44
56.8330000000	41
56.8630000000	38
56.8930000000	40
56.9230000000	40
56.9530000000	43
56.9830000000	47
57.0130000000	41
57.0430000000	54
57.0730000000	62
57.1030000000	52
57.1330000000	46
57.1630000000	44
57.1930000000	52
57.2230000000	35
57.2530000000	47
57.2830000000	49
57.3130000000	47
57.3430000000	57
57.3730000000	57
57.4030000000	38
57.4330000000	43
57.4630000000	43
57.4930000000	40
57.5230000000	55
57.5530000000	56
57.5830000000	34
57.6130000000	45
57.6430000000	55
57.6730000000	52
57.7030000000	53
57.7330000000	55
57.7630000000	50
57.7930000000	40
57.8230000000	42
57.8530000000	52
57.8830000000	54
57.9130000000	65
57.9430000000	26
57.9730000000	40
58.0030000000	40
58.0330000000	55
58.0630000000	45
58.0930000000	38
58.1230000000	44
58.1530000000	46
58.1830000000	51
58.2130000000	47
58.2430000000	49
58.2730000000	51
58.3030000000	48
58.3330000000	52
58.3630000000	44
58.3930000000	38
58.4230000000	41
58.4530000000	50
58.4830000000	44
58.5130000000	30
58.5430000000	40
58.5730000000	33
58.6030000000	34
58.6330000000	52
58.6630000000	37
58.6930000000	41
58.7230000000	34
58.7530000000	45
58.7830000000	56
58.8130000000	40
58.8430000000	38
58.8730000000	42
58.9030000000	52
58.9330000000	42
58.9630000000	54
58.9930000000	48
59.0230000000	52
59.0530000000	47
59.0830000000	45
59.1130000000	48
59.1430000000	49
59.1730000000	41
59.2030000000	41
59.2330000000	44
59.2630000000	48
59.2930000000	41
59.3230000000	54
59.3530000000	52
59.3830000000	53
59.4130000000	34
59.4430000000	43
59.4730000000	48
59.5030000000	42
59.5330000000	52
59.5630000000	52
59.5930000000	39
59.6230000000	54
59.6530000000	57
59.6830000000	60
59.7130000000	40
59.7430000000	46
59.7730000000	39
59.8030000000	43
59.8330000000	47
59.8630000000	33
59.8930000000	38
59.9230000000	45
59.9530000000	52
59.9830000000	37
60.0130000000	56
60.0430000000	47
60.0730000000	52
60.1030000000	53
60.1330000000	60
60.1630000000	65
60.1930000000	98
60.2230000000	125
60.2530000000	127
60.2830000000	154
60.3130000000	137
60.3430000000	120
60.3730000000	109
60.4030000000	106
60.4330000000	90
60.4630000000	78
60.4930000000	71
60.5230000000	68
60.5530000000	59
60.5830000000	66
60.6130000000	44
60.6430000000	40
60.6730000000	45
60.7030000000	43
60.7330000000	39
60.7630000000	44
60.7930000000	55
60.8230000000	40
60.8530000000	51
60.8830000000	46
60.9130000000	41
60.9430000000	49
60.9730000000	38
61.0030000000	47
61.0330000000	36
61.0630000000	45
61.0930000000	46
61.1230000000	49
61.1530000000	53
61.1830000000	45
61.2130000000	57
61.2430000000	61
61.2730000000	66
61.3030000000	60
61.3330000000	69
61.3630000000	60
61.3930000000	67
61.4230000000	62
61.4530000000	70
61.4830000000	75
61.5130000000	97
61.5430000000	129
61.5730000000	137
61.6030000000	127
61.6330000000	112
61.6630000000	92
61.6930000000	108
61.7230000000	79
61.7530000000	72
61.7830000000	62
61.8130000000	49
61.8430000000	52
61.8730000000	44
61.9030000000	46
61.9330000000	52
61.9630000000	51
61.9930000000	37
62.0230000000	38
62.0530000000	42
62.0830000000	41
62.1130000000	41
62.1430000000	39
62.1730000000	43
62.2030000000	31
62.2330000000	43
62.2630000000	45
62.2930000000	38
62.3230000000	53
62.3530000000	41
62.3830000000	55
62.4130000000	37
62.4430000000	41
62.4730000000	49
62.5030000000	53
62.5330000000	35
62.5630000000	37
62.5930000000	45
62.6230000000	41
62.6530000000	36
62.6830000000	39
62.7130000000	35
62.7430000000	45
62.7730000000	41
62.8030000000	33
62.8330000000	50
62.8630000000	40
62.8930000000	34
62.9230000000	41
62.9530000000	45
62.9830000000	39
63.0130000000	37
63.0430000000	39
63.0730000000	35
63.1030000000	34
63.1330000000	36
63.1630000000	44
63.1930000000	50
63.2230000000	56
63.2530000000	51
63.2830000000	40
63.3130000000	46
63.3430000000	46
63.3730000000	48
63.4030000000	59
63.4330000000	52
63.4630000000	54
63.4930000000	54
63.5230000000	35
63.5530000000	38
63.5830000000	33
63.6130000000	54
63.6430000000	44
63.6730000000	38
63.7030000000	38
63.7330000000	36
63.7630000000	45
63.7930000000	47
63.8230000000	45
63.8530000000	47
63.8830000000	37
63.9130000000	32
63.9430000000	47
63.9730000000	40
64.0030000000	31
64.0330000000	43
64.0630000000	32
64.0930000000	54
64.1230000000	49
64.1530000000	45
64.1830000000	43
64.2130000000	31
64.2430000000	52
64.2730000000	43
64.3030000000	36
64.3330000000	46
64.3630000000	51
64.3930000000	43
64.4230000000	39
64.4530000000	31
64.4830000000	47
64.5130000000	47
64.5430000000	42
64.5730000000	48
64.6030000000	41
64.6330000000	38
64.6630000000	50
64.6930000000	46
64.7230000000	57
64.7530000000	45
64.7830000000	42
64.8130000000	53
64.8430000000	46
64.8730000000	40
64.9030000000	44
64.9330000000	46
64.9630000000	49
64.9930000000	39
65.0230000000	47
65.0530000000	40
65.0830000000	42
65.1130000000	39
65.1430000000	42
65.1730000000	53
65.2030000000	54
65.2330000000	41
65.2630000000	53
65.2930000000	43
65.3230000000	33
65.3530000000	35
65.3830000000	42
65.4130000000	38
65.4430000000	47
65.4730000000	35
65.5030000000	54
65.5330000000	46
65.5630000000	45
65.5930000000	35
65.6230000000	26
65.6530000000	41
65.6830000000	37
65.7130000000	41
65.7430000000	45
65.7730000000	46
65.8030000000	55
65.8330000000	52
65.8630000000	40
65.8930000000	44
65.9230000000	45
65.9530000000	44
65.9830000000	46
66.0130000000	53
66.0430000000	46
66.0730000000	51
66.1030000000	69
66.1330000000	75
66.1630000000	82
66.1930000000	111
66.2230000000	138
66.2530000000	159
66.2830000000	172
66.3130000000	170
66.3430000000	157
66.3730000000	135
66.4030000000	117
66.4330000000	98
66.4630000000	112
66.4930000000	103
66.5230000000	74
66.5530000000	70
66.5830000000	68
66.6130000000	54
66.6430000000	57
66.6730000000	64
66.7030000000	51
66.7330000000	55
66.7630000000	55
66.7930000000	50
66.8230000000	46
66.8530000000	47
66.8830000000	40
66.9130000000	43
66.9430000000	41
66.9730000000	41
67.0030000000	29
67.0330000000	48
67.0630000000	43
67.0930000000	40
67.1230000000	43
67.1530000000	40
67.1830000000	35
67.2130000000	43
67.2430000000	58
67.2730000000	44
67.3030000000	55
67.3330000000	45
67.3630000000	44
67.3930000000	47
67.4230000000	40
67.4530000000	44
67.4830000000	32
67.5130000000	39
67.5430000000	33
67.5730000000	52
67.6030000000	40
67.6330000000	28
67.6630000000	40
67.6930000000	40
67.7230000000	44
67.7530000000	44
67.7830000000	46
67.8130000000	41
67.8430000000	33
67.8730000000	44
67.9030000000	61
67.9330000000	37
67.9630000000	29
67.9930000000	40
68.0230000000	37
68.0530000000	37
68.0830000000	39
68.1130000000	34
68.1430000000	44
68.1730000000	42
68.2030000000	37
68.2330000000	40
68.2630000000	43
68.2930000000	38
68.3230000000	28
68.3530000000	42
68.3830000000	45
68.4130000000	33
68.4430000000	38
68.4730000000	47
68.5030000000	37
68.5330000000	40
68.5630000000	24
68.5930000000	44
68.6230000000	38
68.6530000000	47
68.6830000000	46
68.7130000000	37
68.7430000000	53
68.7730000000	38
68.8030000000	34
68.8330000000	35
68.8630000000	42
68.8930000000	51
68.9230000000	37
68.9530000000	31
68.9830000000	39
69.0130000000	33
69.0430000000	39
69.0730000000	30
69.1030000000	45
69.1330000000	41
69.1630000000	42
69.1930000000	40
69.2230000000	43
69.2530000000	44
69.2830000000	51
69.3130000000	49
69.3430000000	40
69.3730000000	40
69.4030000000	56
69.4330000000	29
69.4630000000	53
69.4930000000	43
69.5230000000	34
69.5530000000	41
69.5830000000	49
69.6130000000	44
69.6430000000	49
69.6730000000	45
69.7030000000	42
69.7330000000	40
69.7630000000	40
69.7930000000	46
69.8230000000	54
69.8530000000	43
69.8830000000	42
69.9130000000	53
69.9430000000	38
69.9730000000	45
70.0030000000	47
70.0330000000	43
70.0630000000	35
70.0930000000	26
70.1230000000	48
70.1530000000	40
70.1830000000	45
70.2130000000	37
70.2430000000	43
70.2730000000	35
70.3030000000	41
70.3330000000	32
70.3630000000	37
70.3930000000	35
70.4230000000	39
70.4530000000	39
70.4830000000	47
70.5130000000	50
70.5430000000	37
70.5730000000	41
70.6030000000	64
70.6330000000	37
70.6630000000	46
70.6930000000	43
70.7230000000	40
70.7530000000	39
70.7830000000	36
70.8130000000	39
70.8430000000	35
70.8730000000	37
70.9030000000	43
70.9330000000	39
70.9630000000	37
70.9930000000	39
71.0230000000	40
71.0530000000	36
71.0830000000	46
71.1130000000	42
71.1430000000	34
71.1730000000	40
71.2030000000	45
71.2330000000	30
71.2630000000	42
71.2930000000	41
71.3230000000	51
71.3530000000	49
71.3830000000	33
71.4130000000	38
71.4430000000	42
71.4730000000	40
71.5030000000	34
71.5330000000	45
71.5630000000	39
71.5930000000	48
71.6230000000	39
71.6530000000	35
71.6830000000	51
71.7130000000	40
71.7430000000	34
71.7730000000	40
71.8030000000	51
71.8330000000	44
71.8630000000	49
71.8930000000	45
71.9230000000	46
71.9530000000	49
71.9830000000	45
72.0130000000	64
72.0430000000	57
72.0730000000	58
72.1030000000	57
72.1330000000	55
72.1630000000	55
72.1930000000	71
72.2230000000	64
72.2530000000	46
72.2830000000	80
72.3130000000	81
72.3430000000	77
72.3730000000	97
72.4030000000	92
72.4330000000	99
72.4630000000	101
72.4930000000	76
72.5230000000	97
72.5530000000	78
72.5830000000	75
72.6130000000	92
72.6430000000	71
72.6730000000	66
72.7030000000	70
72.7330000000	65
72.7630000000	70
72.7930000000	85
72.8230000000	84
72.8530000000	120
72.8830000000	170
72.9130000000	172
72.9430000000	161
72.9730000000	136
73.0030000000	133
73.0330000000	140
73.0630000000	117
73.0930000000	121
73.1230000000	105
73.1530000000	84
73.1830000000	81
73.2130000000	84
73.2430000000	46
73.2730000000	49
73.3030000000	59
73.3330000000	47
73.3630000000	52
73.3930000000	58
73.4230000000	50
73.4530000000	49
73.4830000000	42
73.5130000000	41
73.5430000000	44
73.5730000000	40
73.6030000000	42
73.6330000000	40
73.6630000000	36
73.6930000000	42
73.7230000000	50
73.7530000000	50
73.7830000000	45
73.8130000000	50
73.8430000000	41
73.8730000000	50
73.9030000000	40
73.9330000000	33
73.9630000000	49
73.9930000000	49
74.0230000000	42
74.0530000000	37
74.0830000000	41
74.1130000000	47
74.1430000000	54
74.1730000000	35
74.2030000000	41
74.2330000000	38
74.2630000000	41
74.2930000000	43
74.3230000000	48
74.3530000000	44
74.3830000000	34
74.4130000000	44
74.4430000000	44
74.4730000000	52
74.5030000000	42
74.5330000000	38
74.5630000000	34
74.5930000000	40
74.6230000000	47
74.6530000000	57
74.6830000000	49
74.7130000000	41
74.7430000000	45
74.7730000000	50
74.8030000000	50
74.8330000000	41
74.8630000000	41
74.8930000000	62
74.9230000000	50
74.9530000000	63
74.9830000000	51
75.0130000000	52
75.0430000000	38
75.0730000000	51
75.1030000000	47
75.1330000000	47
75.1630000000	54
75.1930000000	52
75.2230000000	51
75.2530000000	41
75.2830000000	42
75.3130000000	51
75.3430000000	44
75.3730000000	50
75.4030000000	58
75.4330000000	50
75.4630000000	49
75.4930000000	58
75.5230000000	46
75.5530000000	45
75.5830000000	41
75.6130000000	32
75.6430000000	37
75.6730000000	32
75.7030000000	49
75.7330000000	47
75.7630000000	38
75.7930000000	38
75.8230000000	39
75.8530000000	33
75.8830000000	39
75.9130000000	44
75.9430000000	43
75.9730000000	44
76.0030000000	46
76.0330000000	47
76.0630000000	42
76.0930000000	37
76.1230000000	36
76.1530000000	34
76.1830000000	38
76.2130000000	36
76.2430000000	33
76.2730000000	38
76.3030000000	38
76.3330000000	44
76.3630000000	33
76.3930000000	56
76.4230000000	34
76.4530000000	43
76.4830000000	37
76.5130000000	39
76.5430000000	42
76.5730000000	38
76.6030000000	31
76.6330000000	46
76.6630000000	36
76.6930000000	46
76.7230000000	46
76.7530000000	40
76.7830000000	27
76.8130000000	35
76.8430000000	37
76.8730000000	44
76.9030000000	51
76.9330000000	42
76.9630000000	39
76.9930000000	45
77.0230000000	40
77.0530000000	48
77.0830000000	52
77.1130000000	34
77.1430000000	38
77.1730000000	37
77.2030000000	36
77.2330000000	45
77.2630000000	48
77.2930000000	40
77.3230000000	44
77.3530000000	39
77.3830000000	33
77.4130000000	46
77.4430000000	58
77.4730000000	54
77.5030000000	68
77.5330000000	53
77.5630000000	86
77.5930000000	70
77.6230000000	79
77.6530000000	65
77.6830000000	65
77.7130000000	56
77.7430000000	57
77.7730000000	57
77.8030000000	59
77.8330000000	48
77.8630000000	51
77.8930000000	51
77.9230000000	61
77.9530000000	66
77.9830000000	44
78.0130000000	51
78.0430000000	51
78.0730000000	41
78.1030000000	45
78.1330000000	45
78.1630000000	40
78.1930000000	45
78.2230000000	38
78.2530000000	35
78.2830000000	38
78.3130000000	49
78.3430000000	50
78.3730000000	41
78.4030000000	38
78.4330000000	47
78.4630000000	36
78.4930000000	49
78.5230000000	37
78.5530000000	36
78.5830000000	40
78.6130000000	38
78.6430000000	41
78.6730000000	37
78.7030000000	38
78.7330000000	52
78.7630000000	45
78.7930000000	52
78.8230000000	50
78.8530000000	54
78.8830000000	45
78.9130000000	44
78.9430000000	35
78.9730000000	38
79.0030000000	43
79.0330000000	44
79.0630000000	47
79.0930000000	36
79.1230000000	47
79.1530000000	41
79.1830000000	39
79.2130000000	44
79.2430000000	35
79.2730000000	39
79.3030000000	35
79.3330000000	45
79.3630000000	37
79.3930000000	38
79.4230000000	32
79.4530000000	58
79.4830000000	42
79.5130000000	34
79.5430000000	46
79.5730000000	31
79.6030000000	42
79.6330000000	36
79.6630000000	28
79.6930000000	38
79.7230000000	46
79.7530000000	43
79.7830000000	42
79.8130000000	45
79.8430000000	42
79.8730000000	42
79.9030000000	46
79.9330000000	48
79.9630000000	40
79.9930000000	49
80.0230000000	44
80.0530000000	37
80.0830000000	40
80.1130000000	42
80.1430000000	54
80.1730000000	34
80.2030000000	45
80.2330000000	47
80.2630000000	39
80.2930000000	43
80.3230000000	38
80.3530000000	51
80.3830000000	42
80.4130000000	38
80.4430000000	41
80.4730000000	44
80.5030000000	41
80.5330000000	43
80.5630000000	50
80.5930000000	46
80.6230000000	57
80.6530000000	67
80.6830000000	69
80.7130000000	59
80.7430000000	47
80.7730000000	63
80.8030000000	47
80.8330000000	61
80.8630000000	54
80.8930000000	53
80.9230000000	49
80.9530000000	36
80.9830000000	30
81.0130000000	30
81.0430000000	33
81.0730000000	47
81.1030000000	48
81.1330000000	56
81.1630000000	31
81.1930000000	39
81.2230000000	46
81.2530000000	41
81.2830000000	45
81.3130000000	29
81.3430000000	40
81.3730000000	48
81.4030000000	47
81.4330000000	36
81.4630000000	53
81.4930000000	42
81.5230000000	38
81.5530000000	36
81.5830000000	46
81.6130000000	37
81.6430000000	37
81.6730000000	38
81.7030000000	45
81.7330000000	29
81.7630000000	31
81.7930000000	36
81.8230000000	41
81.8530000000	40
81.8830000000	34
81.9130000000	42
81.9430000000	36
81.9730000000	40
82.0030000000	41
82.0330000000	22
82.0630000000	28
82.0930000000	34
82.1230000000	35
82.1530000000	37
82.1830000000	26
82.2130000000	35
82.2430000000	36
82.2730000000	34
82.3030000000	40
82.3330000000	42
82.3630000000	34
82.3930000000	36
82.4230000000	38
82.4530000000	39
82.4830000000	43
82.5130000000	39
82.5430000000	30
82.5730000000	32
82.6030000000	37
82.6330000000	40
82.6630000000	38
82.6930000000	43
82.7230000000	39
82.7530000000	33
82.7830000000	35
82.8130000000	34
82.8430000000	39
82.8730000000	50
82.9030000000	40
82.9330000000	30
82.9630000000	42
82.9930000000	45
83.0230000000	36
83.0530000000	34
83.0830000000	41
83.1130000000	56
83.1430000000	47
83.1730000000	52
83.2030000000	39
83.2330000000	41
83.2630000000	47
83.2930000000	47
83.3230000000	52
83.3530000000	57
83.3830000000	63
83.4130000000	64
83.4430000000	49
83.4730000000	53
83.5030000000	66
83.5330000000	58
83.5630000000	57
83.5930000000	47
83.6230000000	47
83.6530000000	42
83.6830000000	46
83.7130000000	44
83.7430000000	41
83.7730000000	46
83.8030000000	36
83.8330000000	52
83.8630000000	24
83.8930000000	46
83.9230000000	43
83.9530000000	38
83.9830000000	33
84.0130000000	47
84.0430000000	36
84.0730000000	32
84.1030000000	39
84.1330000000	48
84.1630000000	37
84.1930000000	45
84.2230000000	38
84.2530000000	28
84.2830000000	43
84.3130000000	39
84.3430000000	41
84.3730000000	31
84.4030000000	39
84.4330000000	42
84.4630000000	25
84.4930000000	31
84.5230000000	34
84.5530000000	30
84.5830000000	29
84.6130000000	44
84.6430000000	32
84.6730000000	33
84.7030000000	39
84.7330000000	39
84.7630000000	45
84.7930000000	37
84.8230000000	29
84.8530000000	29
84.8830000000	29
84.9130000000	31
84.9430000000	37
84.9730000000	33
85.0030000000	39
85.0330000000	24
85.0630000000	37
85.0930000000	41
85.1230000000	36
85.1530000000	33
85.1830000000	30
85.2130000000	41
85.2430000000	35
85.2730000000	29
85.3030000000	52
85.3330000000	43
85.3630000000	41
85.3930000000	29
85.4230000000	37
85.4530000000	30
85.4830000000	35
85.5130000000	39
85.5430000000	33
85.5730000000	39
85.6030000000	49
85.6330000000	51
85.6630000000	42
85.6930000000	38
85.7230000000	38
85.7530000000	45
85.7830000000	44
85.8130000000	43
85.8430000000	51
85.8730000000	40
85.9030000000	56
85.9330000000	35
85.9630000000	41
85.9930000000	44
86.0230000000	27
86.0530000000	43
86.0830000000	52
86.1130000000	39
86.1430000000	34
86.1730000000	33
86.2030000000	39
86.2330000000	37
86.2630000000	34
86.2930000000	45
86.3230000000	39
86.3530000000	50
86.3830000000	38
86.4130000000	38
86.4430000000	36
86.4730000000	29
86.5030000000	39
86.5330000000	36
86.5630000000	38
86.5930000000	46
86.6230000000	34
86.6530000000	39
86.6830000000	40
86.7130000000	44
86.7430000000	45
86.7730000000	41
86.8030000000	44
86.8330000000	50
86.8630000000	45
86.8930000000	41
86.9230000000	44
86.9530000000	52
86.9830000000	52
87.0130000000	34
87.0430000000	30
87.0730000000	35
87.1030000000	35
87.1330000000	38
87.1630000000	32
87.1930000000	29
87.2230000000	34
87.2530000000	38
87.2830000000	42
87.3130000000	46
87.3430000000	53
87.3730000000	34
87.4030000000	37
87.4330000000	42
87.4630000000	38
87.4930000000	32
87.5230000000	38
87.5530000000	43
87.5830000000	40
87.6130000000	35
87.6430000000	43
87.6730000000	30
87.7030000000	46
87.7330000000	38
87.7630000000	38
87.7930000000	35
87.8230000000	53
87.8530000000	40
87.8830000000	40
87.9130000000	47
87.9430000000	43
87.9730000000	41
88.0030000000	33
88.0330000000	40
88.0630000000	34
88.0930000000	33
88.1230000000	46
88.1530000000	46
88.1830000000	48
88.2130000000	41
88.2430000000	52
88.2730000000	43
88.3030000000	43
88.3330000000	55
88.3630000000	55
88.3930000000	44
88.4230000000	43
88.4530000000	49
88.4830000000	46
88.5130000000	44
88.5430000000	50
88.5730000000	49
88.6030000000	42
88.6330000000	52
88.6630000000	44
88.6930000000	53
88.7230000000	40
88.7530000000	42
88.7830000000	47
88.8130000000	49
88.8430000000	43
88.8730000000	37
88.9030000000	38
88.9330000000	30
88.9630000000	41
88.9930000000	37
89.0230000000	36
89.0530000000	48
89.0830000000	40
89.1130000000	38
89.1430000000	43
89.1730000000	23
89.2030000000	43
89.2330000000	39
89.2630000000	42
89.2930000000	43
89.3230000000	41
89.3530000000	32
89.3830000000	40
89.4130000000	49
89.4430000000	41
89.4730000000	49
89.5030000000	52
89.5330000000	44
89.5630000000	57
89.5930000000	62
89.6230000000	54
89.6530000000	44
89.6830000000	47
89.7130000000	49
89.7430000000	44
89.7730000000	42
89.8030000000	40
89.8330000000	45
89.8630000000	48
89.8930000000	39
89.9230000000	52
89.9530000000	34
89.9830000000	39
90.0130000000	35
90.0430000000	39
90.0730000000	34
90.1030000000	31
90.1330000000	39
90.1630000000	41
90.1930000000	28
90.2230000000	40
90.2530000000	43
90.2830000000	30
90.3130000000	45
90.3430000000	47
90.3730000000	38
90.4030000000	45
90.4330000000	42
90.4630000000	39
90.4930000000	50
90.5230000000	44
90.5530000000	51
90.5830000000	51
90.6130000000	46
90.6430000000	45
90.6730000000	39
90.7030000000	39
90.7330000000	41
90.7630000000	41
90.7930000000	27
90.8230000000	37
90.8530000000	39
90.8830000000	34
90.9130000000	34
90.9430000000	48
90.9730000000	41
91.0030000000	36
91.0330000000	41
91.0630000000	43
91.0930000000	32
91.1230000000	43
91.1530000000	38
91.1830000000	28
91.2130000000	24
91.2430000000	35
91.2730000000	41
91.3030000000	40
91.3330000000	39
91.3630000000	29
91.3930000000	33
91.4230000000	52
91.4530000000	37
91.4830000000	38
91.5130000000	38
91.5430000000	29
91.5730000000	33
91.6030000000	35
91.6330000000	40
91.6630000000	35
91.6930000000	27
91.7230000000	43
91.7530000000	42
91.7830000000	38
91.8130000000	39
91.8430000000	39
91.8730000000	36
91.9030000000	35
91.9330000000	45
91.9630000000	39
91.9930000000	43
92.0230000000	28
92.0530000000	33
92.0830000000	25
92.1130000000	35
92.1430000000	44
92.1730000000	40
92.2030000000	51
92.2330000000	48
92.2630000000	32
92.2930000000	37
92.3230000000	39
92.3530000000	28
92.3830000000	41
92.4130000000	39
92.4430000000	28
92.4730000000	30
92.5030000000	36
92.5330000000	33
92.5630000000	25
92.5930000000	39
92.6230000000	37
92.6530000000	33
92.6830000000	34
92.7130000000	34
92.7430000000	34
92.7730000000	23
92.8030000000	44
92.8330000000	44
92.8630000000	46
92.8930000000	31
92.9230000000	40
92.9530000000	46
92.9830000000	41
93.0130000000	44
93.0430000000	35
93.0730000000	37
93.1030000000	39
93.1330000000	29
93.1630000000	31
93.1930000000	41
93.2230000000	44
93.2530000000	40
93.2830000000	35
93.3130000000	33
93.3430000000	31
93.3730000000	36
93.4030000000	36
93.4330000000	36
93.4630000000	30
93.4930000000	43
93.5230000000	43
93.5530000000	36
93.5830000000	47
93.6130000000	39
93.6430000000	38
93.6730000000	39
93.7030000000	46
93.7330000000	45
93.7630000000	42
93.7930000000	34
93.8230000000	35
93.8530000000	37
93.8830000000	44
93.9130000000	45
93.9430000000	43
93.9730000000	53
94.0030000000	39
94.0330000000	45
94.0630000000	35
94.0930000000	38
94.1230000000	36
94.1530000000	21
94.1830000000	45
94.2130000000	38
94.2430000000	29
94.2730000000	43
94.3030000000	43
94.3330000000	37
94.3630000000	43
94.3930000000	37
94.4230000000	34
94.4530000000	40
94.4830000000	40
94.5130000000	29
94.5430000000	32
94.5730000000	43
94.6030000000	43
94.6330000000	37
94.6630000000	41
94.6930000000	42
94.7230000000	35
94.7530000000	35
94.7830000000	33
94.8130000000	44
94.8430000000	31
94.8730000000	42
94.9030000000	44
94.9330000000	39
94.9630000000	29
94.9930000000	40
95.0230000000	50
95.0530000000	30
95.0830000000	36
95.1130000000	29
95.1430000000	48
95.1730000000	37
95.2030000000	25
95.2330000000	33
95.2630000000	55
95.2930000000	44
95.3230000000	29
95.3530000000	46
95.3830000000	39
95.4130000000	38
95.4430000000	52
95.4730000000	32
95.5030000000	45
95.5330000000	49
95.5630000000	35
95.5930000000	43
95.6230000000	39
95.6530000000	41
95.6830000000	37
95.7130000000	29
95.7430000000	33
95.7730000000	32
95.8030000000	46
95.8330000000	42
95.8630000000	34
95.8930000000	39
95.9230000000	40
95.9530000000	30
95.9830000000	35
96.0130000000	30
96.0430000000	28
96.0730000000	42
96.1030000000	46
96.1330000000	38
96.1630000000	41
96.1930000000	41
96.2230000000	41
96.2530000000	30
96.2830000000	47
96.3130000000	27
96.3430000000	37
96.3730000000	40
96.4030000000	43
96.4330000000	33
96.4630000000	30
96.4930000000	35
96.5230000000	27
96.5530000000	45
96.5830000000	49
96.6130000000	27
96.6430000000	38
96.6730000000	47
96.7030000000	38
96.7330000000	44
96.7630000000	48
96.7930000000	40
96.8230000000	50
96.8530000000	39
96.8830000000	38
96.9130000000	34
96.9430000000	41
96.9730000000	49
97.0030000000	31
97.0330000000	38
97.0630000000	48
97.0930000000	53
97.1230000000	35
97.1530000000	37
97.1830000000	43
97.2130000000	36
97.2430000000	30
97.2730000000	37
97.3030000000	41
97.3330000000	48
97.3630000000	40
97.3930000000	28
97.4230000000	32
97.4530000000	39
97.4830000000	39
97.5130000000	36
97.5430000000	43
97.5730000000	50
97.6030000000	61
97.6330000000	37
97.6630000000	37
97.6930000000	39
97.7230000000	28
97.7530000000	26
97.7830000000	37
97.8130000000	28
97.8430000000	38
97.8730000000	42
97.9030000000	38
97.9330000000	32
97.9630000000	45
97.9930000000	34
98.0230000000	38
98.0530000000	33
98.0830000000	29
98.1130000000	24
98.1430000000	33
98.1730000000	35
98.2030000000	38
98.2330000000	43
98.2630000000	32
98.2930000000	49
98.3230000000	31
98.3530000000	31
98.3830000000	39
98.4130000000	46
98.4430000000	33
98.4730000000	33
98.5030000000	37
98.5330000000	35
98.5630000000	33
98.5930000000	32
98.6230000000	31
98.6530000000	36
98.6830000000	37
98.7130000000	39
98.7430000000	39
98.7730000000	40
98.8030000000	43
98.8330000000	43
98.8630000000	42
98.8930000000	43
98.9230000000	41
98.9530000000	35
98.9830000000	43
99.0130000000	43
99.0430000000	23
99.0730000000	39
99.1030000000	38
99.1330000000	48
99.1630000000	34
99.1930000000	39
99.2230000000	39
99.2530000000	33
99.2830000000	31
99.3130000000	40
99.3430000000	39
99.3730000000	34
99.4030000000	40
99.4330000000	39
99.4630000000	48
99.4930000000	31
99.5230000000	28
99.5530000000	39
99.5830000000	29
99.6130000000	34
99.6430000000	41
99.6730000000	38
99.7030000000	33
99.7330000000	42
99.7630000000	45
99.7930000000	44
99.8230000000	46
99.8530000000	35
99.8830000000	38
99.9130000000	46
99.9430000000	36
99.9730000000	30
100.0030000000	37
100.0330000000	40
100.0630000000	42
100.0930000000	42
100.1230000000	38
100.1530000000	28
100.1830000000	36
100.2130000000	49
100.2430000000	38
100.2730000000	40
100.3030000000	39
100.3330000000	31
100.3630000000	44
100.3930000000	31
100.4230000000	35
100.4530000000	37
100.4830000000	21
100.5130000000	45
100.5430000000	28
100.5730000000	35
100.6030000000	35
100.6330000000	40
100.6630000000	36
100.6930000000	32
100.7230000000	28
100.7530000000	23
100.7830000000	30
100.8130000000	37
100.8430000000	33
100.8730000000	46
100.9030000000	29
100.9330000000	40
100.9630000000	31
100.9930000000	51
101.0230000000	35
101.0530000000	46
101.0830000000	40
101.1130000000	39
101.1430000000	34
101.1730000000	38
101.2030000000	39
101.2330000000	34
101.2630000000	33
101.2930000000	36
101.3230000000	35
101.3530000000	31
101.3830000000	34
101.4130000000	34
101.4430000000	42
101.4730000000	36
101.5030000000	32
101.5330000000	31
101.5630000000	32
101.5930000000	32
101.6230000000	37
101.6530000000	38
101.6830000000	35
101.7130000000	44
101.7430000000	35
101.7730000000	27
101.8030000000	39
101.8330000000	43
101.8630000000	29
101.8930000000	31
101.9230000000	46
101.9530000000	33
101.9830000000	31
102.0130000000	43
102.0430000000	39
102.0730000000	35
102.1030000000	29
102.1330000000	26
102.1630000000	35
102.1930000000	32
102.2230000000	34
102.2530000000	44
102.2830000000	45
102.3130000000	39
102.3430000000	40
102.3730000000	43
102.4030000000	31
102.4330000000	34
102.4630000000	34
102.4930000000	34
102.5230000000	48
102.5530000000	39
102.5830000000	27
102.6130000000	37
102.6430000000	34
102.6730000000	35
102.7030000000	36
102.7330000000	28
102.7630000000	31
102.7930000000	37
102.8230000000	37
102.8530000000	43
102.8830000000	37
102.9130000000	32
102.9430000000	33
102.9730000000	27
103.0030000000	34
103.0330000000	30
103.0630000000	35
103.0930000000	37
103.1230000000	38
103.1530000000	33
103.1830000000	33
103.2130000000	38
103.2430000000	31
103.2730000000	27
103.3030000000	34
103.3330000000	36
103.3630000000	31
103.3930000000	37
103.4230000000	36
103.4530000000	36
103.4830000000	38
103.5130000000	42
103.5430000000	32
103.5730000000	35
103.6030000000	38
103.6330000000	45
103.6630000000	34
103.6930000000	24
103.7230000000	35
103.7530000000	32
103.7830000000	49
103.8130000000	37
103.8430000000	30
103.8730000000	29
103.9030000000	37
103.9330000000	26
103.9630000000	38
103.9930000000	36
104.0230000000	37
104.0530000000	39
104.0830000000	40
104.1130000000	39
104.1430000000	35
104.1730000000	35
104.2030000000	35
104.2330000000	34
104.2630000000	49
104.2930000000	40
104.3230000000	36
104.3530000000	38
104.3830000000	34
104.4130000000	50
104.4430000000	38
104.4730000000	33
104.5030000000	43
104.5330000000	41
104.5630000000	47
104.5930000000	39
104.6230000000	47
104.6530000000	54
104.6830000000	44
104.7130000000	37
104.7430000000	47
104.7730000000	39
104.8030000000	23
104.8330000000	30
104.8630000000	44
104.8930000000	43
104.9230000000	47
104.9530000000	45
104.9830000000	39
105.0130000000	41
105.0430000000	35
105.0730000000	29
105.1030000000	29
105.1330000000	33
105.1630000000	29
105.1930000000	24
105.2230000000	35
105.2530000000	38
105.2830000000	32
105.3130000000	37
105.3430000000	39
105.3730000000	36
105.4030000000	43
105.4330000000	35
105.4630000000	29
105.4930000000	39
105.5230000000	36
105.5530000000	46
105.5830000000	36
105.6130000000	31
105.6430000000	40
105.6730000000	32
105.7030000000	39
105.7330000000	32
105.7630000000	46
105.7930000000	33
105.8230000000	32
105.8530000000	32
105.8830000000	31
105.9130000000	45
105.9430000000	32
105.9730000000	50
106.0030000000	47
106.0330000000	33
106.0630000000	26
106.0930000000	43
106.1230000000	40
106.1530000000	32
106.1830000000	27
106.2130000000	42
106.2430000000	50
106.2730000000	30
106.3030000000	31
106.3330000000	27
106.3630000000	51
106.3930000000	42
106.4230000000	35
106.4530000000	35
106.4830000000	33
106.5130000000	42
106.5430000000	33
106.5730000000	39
106.6030000000	41
106.6330000000	39
106.6630000000	59
106.6930000000	39
106.7230000000	44
106.7530000000	34
106.7830000000	52
106.8130000000	39
106.8430000000	49
106.8730000000	34
106.9030000000	42
106.9330000000	36
106.9630000000	29
106.9930000000	43
107.0230000000	36
107.0530000000	48
107.0830000000	38
107.1130000000	37
107.1430000000	44
107.1730000000	35
107.2030000000	37
107.2330000000	39
107.2630000000	32
107.2930000000	31
107.3230000000	42
107.3530000000	40
107.3830000000	35
107.4130000000	30
107.4430000000	40
107.4730000000	35
107.5030000000	34
107.5330000000	41
107.5630000000	39
107.5930000000	46
107.6230000000	44
107.6530000000	35
107.6830000000	38
107.7130000000	44
107.7430000000	49
107.7730000000	51
107.8030000000	43
107.8330000000	45
107.8630000000	48
107.8930000000	42
107.9230000000	35
107.9530000000	42
107.9830000000	54
108.0130000000	24
108.0430000000	40
108.0730000000	37
108.1030000000	35
108.1330000000	47
108.1630000000	39
108.1930000000	39
108.2230000000	37
108.2530000000	31
108.2830000000	38
108.3130000000	41
108.3430000000	32
108.3730000000	40
108.4030000000	30
108.4330000000	26
108.4630000000	36
108.4930000000	39
108.5230000000	32
108.5530000000	40
108.5830000000	38
108.6130000000	27
108.6430000000	39
108.6730000000	32
108.7030000000	52
108.7330000000	27
108.7630000000	33
108.7930000000	42
108.8230000000	36
108.8530000000	50
108.8830000000	36
108.9130000000	33
108.9430000000	36
108.9730000000	32
109.0030000000	46
109.0330000000	45
109.0630000000	43
109.0930000000	35
109.1230000000	39
109.1530000000	38
109.1830000000	38
109.2130000000	31
109.2430000000	34
109.2730000000	34
109.3030000000	34
109.3330000000	28
109.3630000000	35
109.3930000000	41
109.4230000000	57
109.4530000000	41
109.4830000000	45
109.5130000000	39
109.5430000000	36
109.5730000000	36
109.6030000000	36
109.6330000000	50
109.6630000000	36
109.6930000000	49
109.7230000000	36
109.7530000000	37
109.7830000000	48
109.8130000000	39
109.8430000000	41
109.8730000000	41
109.9030000000	44
109.9330000000	42
109.9630000000	34
109.9930000000	33
110.0230000000	32
110.0530000000	34
110.0830000000	35
110.1130000000	44
110.1430000000	38
110.1730000000	33
110.2030000000	48
110.2330000000	38
110.2630000000	52
110.2930000000	40
110.3230000000	33
110.3530000000	42
110.3830000000	40
110.4130000000	36
110.4430000000	42
110.4730000000	50
110.5030000000	47
110.5330000000	36
110.5630000000	31
110.5930000000	32
110.6230000000	44
110.6530000000	37
110.6830000000	36
110.7130000000	33
110.7430000000	40
110.7730000000	44
110.8030000000	42
110.8330000000	43
110.8630000000	30
110.8930000000	44
110.9230000000	50
110.9530000000	33
110.9830000000	41
111.0130000000	49
111.0430000000	41
111.0730000000	37
111.1030000000	46
111.1330000000	49
111.1630000000	48
111.1930000000	47
111.2230000000	43
111.2530000000	51
111.2830000000	47
111.3130000000	33
111.3430000000	46
111.3730000000	35
111.4030000000	42
111.4330000000	44
111.4630000000	49
111.4930000000	43
111.5230000000	53
111.5530000000	48
111.5830000000	42
111.6130000000	46
111.6430000000	34
111.6730000000	42
111.7030000000	42
111.7330000000	49
111.7630000000	44
111.7930000000	25
111.8230000000	35
111.8530000000	39
111.8830000000	41
111.9130000000	42
111.9430000000	38
111.9730000000	50
112.0030000000	45
112.0330000000	41
112.0630000000	35
112.0930000000	35
112.1230000000	24
112.1530000000	36
112.1830000000	44
112.2130000000	33
112.2430000000	35
112.2730000000	40
112.3030000000	46
112.3330000000	37
112.3630000000	47
112.3930000000	41
112.4230000000	37
112.4530000000	39
112.4830000000	39
112.5130000000	38
112.5430000000	35
112.5730000000	41
112.6030000000	46
112.6330000000	45
112.6630000000	41
112.6930000000	34
112.7230000000	32
112.7530000000	36
112.7830000000	41
112.8130000000	44
112.8430000000	33
112.8730000000	34
112.9030000000	46
112.9330000000	47
112.9630000000	42
112.9930000000	53
113.0230000000	61
113.0530000000	68
113.0830000000	63
113.1130000000	70
113.1430000000	67
113.1730000000	79
113.2030000000	48
113.2330000000	54
113.2630000000	51
113.2930000000	50
113.3230000000	43
113.3530000000	46
113.3830000000	61
113.4130000000	65
113.4430000000	57
113.4730000000	57
113.5030000000	67
113.5330000000	62
113.5630000000	45
113.5930000000	38
113.6230000000	48
113.6530000000	39
113.6830000000	48
113.7130000000	42
113.7430000000	41
113.7730000000	46
113.8030000000	43
113.8330000000	41
113.8630000000	38
113.8930000000	38
113.9230000000	40
113.9530000000	32
113.9830000000	44
114.0130000000	29
114.0430000000	55
114.0730000000	34
114.1030000000	24
114.1330000000	48
114.1630000000	39
114.1930000000	35
114.2230000000	38
114.2530000000	48
114.2830000000	50
114.3130000000	44
114.3430000000	52
114.3730000000	30
114.4030000000	54
114.4330000000	42
114.4630000000	1
114.4930000000	1
114.5230000000	1
114.5530000000	1
114.5830000000	1
