0.3130000000	1
0.3430000000	2
0.3730000000	1
0.4030000000	1
0.4330000000	1
0.4630000000	1
0.4930000000	1
0.5230000000	2
0.5530000000	1
0.5830000000	1
0.6130000000	1
0.6430000000	1
0.6730000000	1
0.7030000000	1
0.7330000000	1
0.7630000000	3
0.7930000000	2
0.8230000000	1
0.8530000000	1
0.8830000000	1
0.9130000000	1
0.9430000000	1
0.9730000000	2
1.0030000000	1
1.0330000000	1
1.0630000000	1
1.0930000000	1
1.1230000000	3
1.1530000000	1
1.1830000000	1
1.2130000000	1
1.2430000000	2
1.2730000000	1
1.3030000000	1
1.3330000000	1
1.3630000000	1
1.3930000000	2
1.4230000000	1
1.4530000000	1
1.4830000000	1
1.5130000000	1
1.5430000000	1
1.5730000000	1
1.6030000000	1
1.6330000000	1
1.6630000000	1
1.6930000000	1
1.7230000000	1
1.7530000000	1
1.7830000000	2
1.8130000000	1
1.8430000000	1
1.8730000000	1
1.9030000000	1
1.9330000000	1
1.9630000000	1
1.9930000000	1
2.0230000000	1
2.0530000000	1
2.0830000000	1
2.1130000000	1
2.1430000000	1
2.1730000000	1
2.2030000000	1
2.2330000000	1
2.2630000000	2
2.2930000000	2
2.3230000000	1
2.3530000000	2
2.3830000000	2
2.4130000000	1
2.4430000000	1
2.4730000000	1
2.5030000000	2
2.5330000000	2
2.5630000000	1
2.5930000000	1
2.6230000000	1
2.6530000000	2
2.6830000000	1
2.7130000000	1
2.7430000000	2
2.7730000000	2
2.8030000000	1
2.8330000000	1
2.8630000000	1
2.8930000000	2
2.9230000000	3
2.9530000000	1
2.9830000000	1
3.0130000000	2
3.0430000000	2
3.0730000000	1
3.1030000000	1
3.1330000000	1
3.1630000000	1
3.1930000000	2
3.2230000000	2
3.2530000000	3
3.2830000000	2
3.3130000000	1
3.3430000000	1
3.3730000000	1
3.4030000000	1
3.4330000000	2
3.4630000000	3
3.4930000000	2
3.5230000000	3
3.5530000000	2
3.5830000000	3
3.6130000000	2
3.6430000000	2
3.6730000000	1
3.7030000000	2
3.7330000000	1
3.7630000000	3
3.7930000000	3
3.8230000000	5
3.8530000000	2
3.8830000000	2
3.9130000000	1
3.9430000000	1
3.9730000000	1
4.0030000000	2
4.0330000000	3
4.0630000000	2
4.0930000000	2
4.1230000000	4
4.1530000000	3
4.1830000000	5
4.2130000000	3
4.2430000000	3
4.2730000000	5
4.3030000000	3
4.3330000000	2
4.3630000000	2
4.3930000000	5
4.4230000000	4
4.4530000000	9
4.4830000000	12
4.5130000000	20
4.5430000000	28
4.5730000000	60
4.6030000000	67
4.6330000000	100
4.6630000000	98
4.6930000000	139
4.7230000000	112
4.7530000000	125
4.7830000000	140
4.8130000000	132
4.8430000000	133
4.8730000000	133
4.9030000000	149
4.9330000000	163
4.9630000000	139
4.9930000000	157
5.0230000000	156
5.0530000000	138
5.0830000000	155
5.1130000000	139
5.1430000000	134
5.1730000000	142
5.2030000000	124
5.2330000000	119
5.2630000000	157
5.2930000000	149
5.3230000000	135
5.3530000000	141
5.3830000000	149
5.4130000000	154
5.4430000000	155
5.4730000000	135
5.5030000000	142
5.5330000000	148
5.5630000000	145
5.5930000000	158
5.6230000000	153
5.6530000000	150
5.6830000000	146
5.7130000000	156
5.7430000000	141
5.7730000000	156
5.8030000000	143
5.8330000000	128
5.8630000000	155
5.8930000000	144
5.9230000000	134
5.9530000000	133
5.9830000000	154
6.0130000000	134
6.0430000000	155
6.0730000000	127
6.1030000000	128
6.1330000000	139
6.1630000000	134
6.1930000000	159
6.2230000000	154
6.2530000000	145
6.2830000000	159
6.3130000000	146
6.3430000000	157
6.3730000000	152
6.4030000000	146
6.4330000000	146
6.4630000000	136
6.4930000000	145
6.5230000000	131
6.5530000000	154
6.5830000000	150
6.6130000000	135
6.6430000000	139
6.6730000000	132
6.7030000000	135
6.7330000000	145
6.7630000000	155
6.7930000000	139
6.8230000000	120
6.8530000000	153
6.8830000000	165
6.9130000000	159
6.9430000000	155
6.9730000000	162
7.0030000000	138
7.0330000000	137
7.0630000000	156
7.0930000000	159
7.1230000000	153
7.1530000000	140
7.1830000000	141
7.2130000000	158
7.2430000000	150
7.2730000000	137
7.3030000000	117
7.3330000000	138
7.3630000000	148
7.3930000000	143
7.4230000000	144
7.4530000000	156
7.4830000000	137
7.5130000000	136
7.5430000000	150
7.5730000000	150
7.6030000000	149
7.6330000000	143
7.6630000000	153
7.6930000000	166
7.7230000000	152
7.7530000000	132
7.7830000000	133
7.8130000000	140
7.8430000000	139
7.8730000000	135
7.9030000000	138
7.9330000000	149
7.9630000000	151
7.9930000000	144
8.0230000000	137
8.0530000000	137
8.0830000000	134
8.1130000000	146
8.1430000000	135
8.1730000000	154
8.2030000000	166
8.2330000000	168
8.2630000000	150
8.2930000000	133
8.3230000000	138
8.3530000000	144
8.3830000000	151
8.4130000000	142
8.4430000000	127
8.4730000000	147
8.5030000000	134
8.5330000000	132
8.5630000000	140
8.5930000000	119
8.6230000000	141
8.6530000000	140
8.6830000000	148
8.7130000000	143
8.7430000000	149
8.7730000000	121
8.8030000000	125
8.8330000000	123
8.8630000000	139
8.8930000000	149
8.9230000000	153
8.9530000000	161
8.9830000000	143
9.0130000000	143
9.0430000000	141
9.0730000000	157
9.1030000000	160
9.1330000000	135
9.1630000000	147
9.1930000000	154
9.2230000000	152
9.2530000000	160
9.2830000000	143
9.3130000000	169
9.3430000000	128
9.3730000000	157
9.4030000000	161
9.4330000000	164
9.4630000000	148
9.4930000000	131
9.5230000000	169
9.5530000000	130
9.5830000000	148
9.6130000000	168
9.6430000000	143
9.6730000000	151
9.7030000000	141
9.7330000000	136
9.7630000000	154
9.7930000000	138
9.8230000000	137
9.8530000000	166
9.8830000000	155
9.9130000000	143
9.9430000000	148
9.9730000000	171
10.0030000000	148
10.0330000000	130
10.0630000000	142
10.0930000000	150
10.1230000000	158
10.1530000000	151
10.1830000000	149
10.2130000000	167
10.2430000000	150
10.2730000000	137
10.3030000000	165
10.3330000000	133
10.3630000000	145
10.3930000000	140
10.4230000000	136
10.4530000000	163
10.4830000000	131
10.5130000000	126
10.5430000000	160
10.5730000000	149
10.6030000000	122
10.6330000000	166
10.6630000000	131
10.6930000000	177
10.7230000000	163
10.7530000000	147
10.7830000000	140
10.8130000000	141
10.8430000000	140
10.8730000000	155
10.9030000000	165
10.9330000000	169
10.9630000000	157
10.9930000000	162
11.0230000000	142
11.0530000000	150
11.0830000000	130
11.1130000000	130
11.1430000000	141
11.1730000000	164
11.2030000000	151
11.2330000000	164
11.2630000000	160
11.2930000000	147
11.3230000000	138
11.3530000000	154
11.3830000000	148
11.4130000000	164
11.4430000000	154
11.4730000000	137
11.5030000000	165
11.5330000000	136
11.5630000000	142
11.5930000000	130
11.6230000000	129
11.6530000000	128
11.6830000000	134
11.7130000000	154
11.7430000000	127
11.7730000000	135
11.8030000000	149
11.8330000000	142
11.8630000000	124
11.8930000000	146
11.9230000000	136
11.9530000000	148
11.9830000000	159
12.0130000000	155
12.0430000000	144
12.0730000000	151
12.1030000000	142
12.1330000000	132
12.1630000000	131
12.1930000000	148
12.2230000000	138
12.2530000000	135
12.2830000000	139
12.3130000000	156
12.3430000000	153
12.3730000000	137
12.4030000000	156
12.4330000000	149
12.4630000000	136
12.4930000000	164
12.5230000000	162
12.5530000000	130
12.5830000000	151
12.6130000000	160
12.6430000000	133
12.6730000000	135
12.7030000000	140
12.7330000000	120
12.7630000000	126
12.7930000000	149
12.8230000000	153
12.8530000000	136
12.8830000000	140
12.9130000000	148
12.9430000000	140
12.9730000000	130
13.0030000000	138
13.0330000000	141
13.0630000000	143
13.0930000000	134
13.1230000000	123
13.1530000000	163
13.1830000000	148
13.2130000000	154
13.2430000000	159
13.2730000000	137
13.3030000000	156
13.3330000000	136
13.3630000000	140
13.3930000000	127
13.4230000000	120
13.4530000000	158
13.4830000000	155
13.5130000000	133
13.5430000000	158
13.5730000000	161
13.6030000000	138
13.6330000000	157
13.6630000000	158
13.6930000000	157
13.7230000000	144
13.7530000000	141
13.7830000000	153
13.8130000000	137
13.8430000000	134
13.8730000000	149
13.9030000000	136
13.9330000000	142
13.9630000000	125
13.9930000000	138
14.0230000000	145
14.0530000000	149
14.0830000000	134
14.1130000000	125
14.1430000000	153
14.1730000000	146
14.2030000000	150
14.2330000000	127
14.2630000000	133
14.2930000000	152
14.3230000000	146
14.3530000000	154
14.3830000000	129
14.4130000000	131
14.4430000000	145
14.4730000000	132
14.5030000000	148
14.5330000000	129
14.5630000000	140
14.5930000000	144
14.6230000000	136
14.6530000000	147
14.6830000000	137
14.7130000000	169
14.7430000000	132
14.7730000000	142
14.8030000000	145
14.8330000000	158
14.8630000000	149
14.8930000000	140
14.9230000000	145
14.9530000000	173
14.9830000000	147
15.0130000000	149
15.0430000000	132
15.0730000000	149
15.1030000000	147
15.1330000000	169
15.1630000000	148
15.1930000000	170
15.2230000000	143
15.2530000000	142
15.2830000000	144
15.3130000000	147
15.3430000000	157
15.3730000000	144
15.4030000000	153
15.4330000000	135
15.4630000000	162
15.4930000000	137
15.5230000000	143
15.5530000000	140
15.5830000000	142
15.6130000000	128
15.6430000000	151
15.6730000000	151
15.7030000000	144
15.7330000000	147
15.7630000000	119
15.7930000000	124
15.8230000000	133
15.8530000000	135
15.8830000000	152
15.9130000000	150
15.9430000000	143
15.9730000000	117
16.0030000000	148
16.0330000000	154
16.0630000000	149
16.0930000000	144
16.1230000000	145
16.1530000000	134
16.1830000000	146
16.2130000000	158
16.2430000000	123
16.2730000000	148
16.3030000000	161
16.3330000000	155
16.3630000000	137
16.3930000000	125
16.4230000000	142
16.4530000000	142
16.4830000000	130
16.5130000000	135
16.5430000000	152
16.5730000000	145
16.6030000000	133
16.6330000000	149
16.6630000000	136
16.6930000000	121
16.7230000000	158
16.7530000000	167
16.7830000000	138
16.8130000000	149
16.8430000000	147
16.8730000000	145
16.9030000000	144
16.9330000000	153
16.9630000000	138
16.9930000000	127
17.0230000000	155
17.0530000000	159
17.0830000000	159
17.1130000000	140
17.1430000000	154
17.1730000000	148
17.2030000000	135
17.2330000000	130
17.2630000000	143
17.2930000000	146
17.3230000000	150
17.3530000000	149
17.3830000000	127
17.4130000000	145
17.4430000000	157
17.4730000000	141
17.5030000000	144
17.5330000000	149
17.5630000000	158
17.5930000000	171
17.6230000000	150
17.6530000000	134
17.6830000000	155
17.7130000000	147
17.7430000000	129
17.7730000000	144
17.8030000000	155
17.8330000000	139
17.8630000000	141
17.8930000000	142
17.9230000000	143
17.9530000000	152
17.9830000000	143
18.0130000000	136
18.0430000000	139
18.0730000000	143
18.1030000000	132
18.1330000000	131
18.1630000000	124
18.1930000000	148
18.2230000000	143
18.2530000000	148
18.2830000000	133
18.3130000000	125
18.3430000000	134
18.3730000000	153
18.4030000000	140
18.4330000000	162
18.4630000000	152
18.4930000000	143
18.5230000000	140
18.5530000000	155
18.5830000000	153
18.6130000000	152
18.6430000000	150
18.6730000000	163
18.7030000000	132
18.7330000000	161
18.7630000000	155
18.7930000000	157
18.8230000000	153
18.8530000000	175
18.8830000000	147
18.9130000000	133
18.9430000000	154
18.9730000000	153
19.0030000000	150
19.0330000000	138
19.0630000000	168
19.0930000000	155
19.1230000000	154
19.1530000000	131
19.1830000000	167
19.2130000000	157
19.2430000000	152
19.2730000000	165
19.3030000000	162
19.3330000000	160
19.3630000000	140
19.3930000000	167
19.4230000000	182
19.4530000000	207
19.4830000000	259
19.5130000000	303
19.5430000000	307
19.5730000000	324
19.6030000000	380
19.6330000000	368
19.6630000000	312
19.6930000000	269
19.7230000000	221
19.7530000000	197
19.7830000000	169
19.8130000000	134
19.8430000000	136
19.8730000000	164
19.9030000000	160
19.9330000000	135
19.9630000000	124
19.9930000000	139
20.0230000000	168
20.0530000000	149
20.0830000000	166
20.1130000000	160
20.1430000000	155
20.1730000000	154
20.2030000000	146
20.2330000000	153
20.2630000000	157
20.2930000000	140
20.3230000000	140
20.3530000000	144
20.3830000000	167
20.4130000000	168
20.4430000000	172
20.4730000000	139
20.5030000000	173
20.5330000000	154
20.5630000000	126
20.5930000000	143
20.6230000000	162
20.6530000000	150
20.6830000000	126
20.7130000000	155
20.7430000000	159
20.7730000000	153
20.8030000000	154
20.8330000000	148
20.8630000000	152
20.8930000000	167
20.9230000000	163
20.9530000000	160
20.9830000000	155
21.0130000000	172
21.0430000000	158
21.0730000000	141
21.1030000000	160
21.1330000000	143
21.1630000000	174
21.1930000000	173
21.2230000000	134
21.2530000000	152
21.2830000000	142
21.3130000000	140
21.3430000000	151
21.3730000000	162
21.4030000000	168
21.4330000000	154
21.4630000000	143
21.4930000000	132
21.5230000000	150
21.5530000000	165
21.5830000000	140
21.6130000000	161
21.6430000000	179
21.6730000000	174
21.7030000000	161
21.7330000000	178
21.7630000000	172
21.7930000000	164
21.8230000000	169
21.8530000000	161
21.8830000000	150
21.9130000000	162
21.9430000000	162
21.9730000000	151
22.0030000000	160
22.0330000000	156
22.0630000000	155
22.0930000000	175
22.1230000000	159
22.1530000000	149
22.1830000000	154
22.2130000000	152
22.2430000000	165
22.2730000000	180
22.3030000000	153
22.3330000000	177
22.3630000000	179
22.3930000000	162
22.4230000000	151
22.4530000000	169
22.4830000000	168
22.5130000000	148
22.5430000000	164
22.5730000000	187
22.6030000000	196
22.6330000000	192
22.6630000000	210
22.6930000000	230
22.7230000000	220
22.7530000000	226
22.7830000000	225
22.8130000000	175
22.8430000000	188
22.8730000000	191
22.9030000000	169
22.9330000000	197
22.9630000000	175
22.9930000000	145
23.0230000000	147
23.0530000000	186
23.0830000000	173
23.1130000000	163
23.1430000000	166
23.1730000000	153
23.2030000000	132
23.2330000000	133
23.2630000000	194
23.2930000000	193
23.3230000000	172
23.3530000000	154
23.3830000000	163
23.4130000000	163
23.4430000000	190
23.4730000000	151
23.5030000000	163
23.5330000000	154
23.5630000000	164
23.5930000000	180
23.6230000000	173
23.6530000000	150
23.6830000000	175
23.7130000000	155
23.7430000000	193
23.7730000000	169
23.8030000000	156
23.8330000000	166
23.8630000000	178
23.8930000000	162
23.9230000000	181
23.9530000000	192
23.9830000000	157
24.0130000000	170
24.0430000000	170
24.0730000000	182
24.1030000000	194
24.1330000000	181
24.1630000000	173
24.1930000000	152
24.2230000000	173
24.2530000000	163
24.2830000000	168
24.3130000000	158
24.3430000000	169
24.3730000000	146
24.4030000000	174
24.4330000000	161
24.4630000000	174
24.4930000000	175
24.5230000000	175
24.5530000000	158
24.5830000000	172
24.6130000000	197
24.6430000000	174
24.6730000000	152
24.7030000000	143
24.7330000000	158
24.7630000000	179
24.7930000000	167
24.8230000000	171
24.8530000000	159
24.8830000000	175
24.9130000000	171
24.9430000000	180
24.9730000000	164
25.0030000000	156
25.0330000000	172
25.0630000000	165
25.0930000000	146
25.1230000000	176
25.1530000000	180
25.1830000000	144
25.2130000000	194
25.2430000000	163
25.2730000000	161
25.3030000000	148
25.3330000000	178
25.3630000000	158
25.3930000000	158
25.4230000000	185
25.4530000000	182
25.4830000000	152
25.5130000000	179
25.5430000000	168
25.5730000000	181
25.6030000000	159
25.6330000000	163
25.6630000000	176
25.6930000000	188
25.7230000000	157
25.7530000000	167
25.7830000000	176
25.8130000000	172
25.8430000000	172
25.8730000000	186
25.9030000000	172
25.9330000000	146
25.9630000000	160
25.9930000000	170
26.0230000000	158
26.0530000000	159
26.0830000000	165
26.1130000000	169
26.1430000000	192
26.1730000000	166
26.2030000000	193
26.2330000000	202
26.2630000000	252
26.2930000000	289
26.3230000000	400
26.3530000000	495
26.3830000000	642
26.4130000000	897
26.4430000000	1029
26.4730000000	948
26.5030000000	821
26.5330000000	581
26.5630000000	411
26.5930000000	317
26.6230000000	259
26.6530000000	233
26.6830000000	211
26.7130000000	185
26.7430000000	199
26.7730000000	195
26.8030000000	180
26.8330000000	179
26.8630000000	175
26.8930000000	157
26.9230000000	150
26.9530000000	155
26.9830000000	159
27.0130000000	154
27.0430000000	150
27.0730000000	138
27.1030000000	132
27.1330000000	145
27.1630000000	146
27.1930000000	147
27.2230000000	150
27.2530000000	141
27.2830000000	145
27.3130000000	156
27.3430000000	164
27.3730000000	153
27.4030000000	150
27.4330000000	142
27.4630000000	146
27.4930000000	149
27.5230000000	169
27.5530000000	170
27.5830000000	129
27.6130000000	152
27.6430000000	160
27.6730000000	133
27.7030000000	144
27.7330000000	167
27.7630000000	156
27.7930000000	130
27.8230000000	163
27.8530000000	136
27.8830000000	140
27.9130000000	149
27.9430000000	150
27.9730000000	148
28.0030000000	106
28.0330000000	151
28.0630000000	159
28.0930000000	153
28.1230000000	160
28.1530000000	149
28.1830000000	160
28.2130000000	143
28.2430000000	155
28.2730000000	150
28.3030000000	158
28.3330000000	180
28.3630000000	154
28.3930000000	155
28.4230000000	168
28.4530000000	157
28.4830000000	168
28.5130000000	135
28.5430000000	136
28.5730000000	135
28.6030000000	153
28.6330000000	149
28.6630000000	149
28.6930000000	156
28.7230000000	161
28.7530000000	142
28.7830000000	156
28.8130000000	175
28.8430000000	166
28.8730000000	130
28.9030000000	155
28.9330000000	177
28.9630000000	131
28.9930000000	143
29.0230000000	156
29.0530000000	129
29.0830000000	153
29.1130000000	134
29.1430000000	131
29.1730000000	144
29.2030000000	128
29.2330000000	128
29.2630000000	126
29.2930000000	155
29.3230000000	143
29.3530000000	129
29.3830000000	150
29.4130000000	133
29.4430000000	148
29.4730000000	125
29.5030000000	140
29.5330000000	108
29.5630000000	131
29.5930000000	135
29.6230000000	119
29.6530000000	120
29.6830000000	128
29.7130000000	128
29.7430000000	116
29.7730000000	126
29.8030000000	123
29.8330000000	131
29.8630000000	134
29.8930000000	146
29.9230000000	129
29.9530000000	157
29.9830000000	132
30.0130000000	137
30.0430000000	124
30.0730000000	129
30.1030000000	171
30.1330000000	148
30.1630000000	178
30.1930000000	172
30.2230000000	209
30.2530000000	238
30.2830000000	331
30.3130000000	495
30.3430000000	631
30.3730000000	1065
30.4030000000	1468
30.4330000000	2089
30.4630000000	2601
30.4930000000	2663
30.5230000000	2139
30.5530000000	1682
30.5830000000	1167
30.6130000000	669
30.6430000000	465
30.6730000000	336
30.7030000000	253
30.7330000000	206
30.7630000000	177
30.7930000000	179
30.8230000000	157
30.8530000000	169
30.8830000000	172
30.9130000000	148
30.9430000000	157
30.9730000000	128
31.0030000000	108
31.0330000000	151
31.0630000000	135
31.0930000000	139
31.1230000000	142
31.1530000000	141
31.1830000000	150
31.2130000000	140
31.2430000000	154
31.2730000000	137
31.3030000000	139
31.3330000000	137
31.3630000000	130
31.3930000000	143
31.4230000000	134
31.4530000000	122
31.4830000000	132
31.5130000000	135
31.5430000000	117
31.5730000000	153
31.6030000000	146
31.6330000000	166
31.6630000000	167
31.6930000000	217
31.7230000000	281
31.7530000000	347
31.7830000000	499
31.8130000000	709
31.8430000000	1052
31.8730000000	1369
31.9030000000	1565
31.9330000000	1651
31.9630000000	1332
31.9930000000	1034
32.0230000000	792
32.0530000000	743
32.0830000000	704
32.1130000000	792
32.1430000000	983
32.1730000000	1119
32.2030000000	1116
32.2330000000	1023
32.2630000000	805
32.2930000000	576
32.3230000000	419
32.3530000000	260
32.3830000000	206
32.4130000000	164
32.4430000000	142
32.4730000000	135
32.5030000000	131
32.5330000000	102
32.5630000000	126
32.5930000000	120
32.6230000000	129
32.6530000000	120
32.6830000000	103
32.7130000000	117
32.7430000000	122
32.7730000000	125
32.8030000000	119
32.8330000000	116
32.8630000000	105
32.8930000000	136
32.9230000000	115
32.9530000000	111
32.9830000000	115
33.0130000000	107
33.0430000000	104
33.0730000000	117
33.1030000000	111
33.1330000000	101
33.1630000000	110
33.1930000000	112
33.2230000000	113
33.2530000000	124
33.2830000000	145
33.3130000000	124
33.3430000000	129
33.3730000000	121
33.4030000000	111
33.4330000000	122
33.4630000000	112
33.4930000000	107
33.5230000000	111
33.5530000000	105
33.5830000000	114
33.6130000000	105
33.6430000000	81
33.6730000000	92
33.7030000000	99
33.7330000000	91
33.7630000000	97
33.7930000000	109
33.8230000000	88
33.8530000000	85
33.8830000000	84
33.9130000000	92
33.9430000000	88
33.9730000000	84
34.0030000000	97
34.0330000000	116
34.0630000000	110
34.0930000000	85
34.1230000000	94
34.1530000000	97
34.1830000000	104
34.2130000000	86
34.2430000000	91
34.2730000000	110
34.3030000000	87
34.3330000000	114
34.3630000000	97
34.3930000000	95
34.4230000000	103
34.4530000000	98
34.4830000000	121
34.5130000000	101
34.5430000000	91
34.5730000000	89
34.6030000000	93
34.6330000000	83
34.6630000000	97
34.6930000000	98
34.7230000000	105
34.7530000000	93
34.7830000000	104
34.8130000000	106
34.8430000000	102
34.8730000000	98
34.9030000000	107
34.9330000000	104
34.9630000000	77
34.9930000000	103
35.0230000000	102
35.0530000000	82
35.0830000000	90
35.1130000000	105
35.1430000000	92
35.1730000000	98
35.2030000000	110
35.2330000000	113
35.2630000000	139
35.2930000000	166
35.3230000000	174
35.3530000000	248
35.3830000000	267
35.4130000000	269
35.4430000000	276
35.4730000000	226
35.5030000000	185
35.5330000000	141
35.5630000000	145
35.5930000000	124
35.6230000000	115
35.6530000000	97
35.6830000000	110
35.7130000000	116
35.7430000000	101
35.7730000000	87
35.8030000000	102
35.8330000000	90
35.8630000000	92
35.8930000000	101
35.9230000000	94
35.9530000000	97
35.9830000000	90
36.0130000000	94
36.0430000000	90
36.0730000000	79
36.1030000000	94
36.1330000000	96
36.1630000000	92
36.1930000000	95
36.2230000000	86
36.2530000000	94
36.2830000000	93
36.3130000000	94
36.3430000000	98
36.3730000000	99
36.4030000000	89
36.4330000000	99
36.4630000000	128
36.4930000000	143
36.5230000000	132
36.5530000000	209
36.5830000000	224
36.6130000000	295
36.6430000000	380
36.6730000000	450
36.7030000000	432
36.7330000000	390
36.7630000000	345
36.7930000000	257
36.8230000000	188
36.8530000000	127
36.8830000000	105
36.9130000000	104
36.9430000000	83
36.9730000000	90
37.0030000000	92
37.0330000000	85
37.0630000000	85
37.0930000000	97
37.1230000000	85
37.1530000000	95
37.1830000000	77
37.2130000000	95
37.2430000000	90
37.2730000000	95
37.3030000000	83
37.3330000000	63
37.3630000000	66
37.3930000000	79
37.4230000000	80
37.4530000000	76
37.4830000000	77
37.5130000000	88
37.5430000000	84
37.5730000000	87
37.6030000000	88
37.6330000000	82
37.6630000000	72
37.6930000000	66
37.7230000000	80
37.7530000000	84
37.7830000000	86
37.8130000000	82
37.8430000000	84
37.8730000000	85
37.9030000000	98
37.9330000000	87
37.9630000000	90
37.9930000000	94
38.0230000000	96
38.0530000000	86
38.0830000000	79
38.1130000000	90
38.1430000000	106
38.1730000000	97
38.2030000000	98
38.2330000000	92
38.2630000000	92
38.2930000000	91
38.3230000000	79
38.3530000000	74
38.3830000000	76
38.4130000000	82
38.4430000000	89
38.4730000000	93
38.5030000000	89
38.5330000000	78
38.5630000000	75
38.5930000000	77
38.6230000000	82
38.6530000000	92
38.6830000000	83
38.7130000000	76
38.7430000000	74
38.7730000000	67
38.8030000000	82
38.8330000000	98
38.8630000000	92
38.8930000000	79
38.9230000000	76
38.9530000000	81
38.9830000000	95
39.0130000000	103
39.0430000000	83
39.0730000000	78
39.1030000000	91
39.1330000000	104
39.1630000000	92
39.1930000000	97
39.2230000000	92
39.2530000000	93
39.2830000000	92
39.3130000000	91
39.3430000000	107
39.3730000000	110
39.4030000000	86
39.4330000000	86
39.4630000000	85
39.4930000000	97
39.5230000000	89
39.5530000000	117
39.5830000000	126
39.6130000000	176
39.6430000000	246
39.6730000000	330
39.7030000000	539
39.7330000000	774
39.7630000000	997
39.7930000000	1228
39.8230000000	1208
39.8530000000	1059
39.8830000000	798
39.9130000000	629
39.9430000000	442
39.9730000000	270
40.0030000000	202
40.0330000000	162
40.0630000000	113
40.0930000000	116
40.1230000000	106
40.1530000000	91
40.1830000000	93
40.2130000000	89
40.2430000000	96
40.2730000000	92
40.3030000000	81
40.3330000000	81
40.3630000000	95
40.3930000000	96
40.4230000000	94
40.4530000000	89
40.4830000000	90
40.5130000000	97
40.5430000000	72
40.5730000000	88
40.6030000000	74
40.6330000000	88
40.6630000000	77
40.6930000000	84
40.7230000000	88
40.7530000000	79
40.7830000000	82
40.8130000000	89
40.8430000000	78
40.8730000000	90
40.9030000000	91
40.9330000000	82
40.9630000000	85
40.9930000000	89
41.0230000000	87
41.0530000000	92
41.0830000000	97
41.1130000000	100
41.1430000000	85
41.1730000000	83
41.2030000000	108
41.2330000000	97
41.2630000000	102
41.2930000000	86
41.3230000000	86
41.3530000000	84
41.3830000000	90
41.4130000000	85
41.4430000000	76
41.4730000000	84
41.5030000000	86
41.5330000000	86
41.5630000000	86
41.5930000000	87
41.6230000000	70
41.6530000000	74
41.6830000000	80
41.7130000000	73
41.7430000000	75
41.7730000000	76
41.8030000000	81
41.8330000000	70
41.8630000000	69
41.8930000000	82
41.9230000000	76
41.9530000000	77
41.9830000000	80
42.0130000000	83
42.0430000000	87
42.0730000000	87
42.1030000000	80
42.1330000000	72
42.1630000000	80
42.1930000000	87
42.2230000000	80
42.2530000000	83
42.2830000000	71
42.3130000000	74
42.3430000000	81
42.3730000000	83
42.4030000000	85
42.4330000000	86
42.4630000000	89
42.4930000000	80
42.5230000000	82
42.5530000000	91
42.5830000000	81
42.6130000000	81
42.6430000000	82
42.6730000000	73
42.7030000000	86
42.7330000000	84
42.7630000000	73
42.7930000000	81
42.8230000000	77
42.8530000000	94
42.8830000000	80
42.9130000000	101
42.9430000000	88
42.9730000000	97
43.0030000000	105
43.0330000000	114
43.0630000000	123
43.0930000000	208
43.1230000000	289
43.1530000000	319
43.1830000000	510
43.2130000000	709
43.2430000000	963
43.2730000000	1215
43.3030000000	1407
43.3330000000	1259
43.3630000000	1103
43.3930000000	839
43.4230000000	569
43.4530000000	385
43.4830000000	271
43.5130000000	183
43.5430000000	151
43.5730000000	118
43.6030000000	100
43.6330000000	105
43.6630000000	93
43.6930000000	97
43.7230000000	106
43.7530000000	106
43.7830000000	122
43.8130000000	104
43.8430000000	109
43.8730000000	95
43.9030000000	83
43.9330000000	81
43.9630000000	104
43.9930000000	75
44.0230000000	81
44.0530000000	70
44.0830000000	70
44.1130000000	84
44.1430000000	76
44.1730000000	71
44.2030000000	72
44.2330000000	90
44.2630000000	61
44.2930000000	72
44.3230000000	74
44.3530000000	73
44.3830000000	80
44.4130000000	77
44.4430000000	74
44.4730000000	72
44.5030000000	68
44.5330000000	77
44.5630000000	81
44.5930000000	70
44.6230000000	72
44.6530000000	94
44.6830000000	82
44.7130000000	77
44.7430000000	78
44.7730000000	82
44.8030000000	81
44.8330000000	88
44.8630000000	89
44.8930000000	94
44.9230000000	132
44.9530000000	152
44.9830000000	173
45.0130000000	253
45.0430000000	364
45.0730000000	526
45.1030000000	672
45.1330000000	877
45.1630000000	848
45.1930000000	792
45.2230000000	680
45.2530000000	515
45.2830000000	359
45.3130000000	241
45.3430000000	154
45.3730000000	129
45.4030000000	94
45.4330000000	96
45.4630000000	77
45.4930000000	64
45.5230000000	76
45.5530000000	80
45.5830000000	65
45.6130000000	66
45.6430000000	61
45.6730000000	73
45.7030000000	86
45.7330000000	73
45.7630000000	62
45.7930000000	56
45.8230000000	63
45.8530000000	86
45.8830000000	66
45.9130000000	80
45.9430000000	78
45.9730000000	85
46.0030000000	104
46.0330000000	136
46.0630000000	165
46.0930000000	183
46.1230000000	199
46.1530000000	199
46.1830000000	162
46.2130000000	164
46.2430000000	143
46.2730000000	125
46.3030000000	102
46.3330000000	87
46.3630000000	83
46.3930000000	79
46.4230000000	87
46.4530000000	99
46.4830000000	104
46.5130000000	96
46.5430000000	105
46.5730000000	102
46.6030000000	115
46.6330000000	98
46.6630000000	83
46.6930000000	72
46.7230000000	61
46.7530000000	81
46.7830000000	77
46.8130000000	72
46.8430000000	70
46.8730000000	74
46.9030000000	73
46.9330000000	100
46.9630000000	116
46.9930000000	167
47.0230000000	210
47.0530000000	257
47.0830000000	251
47.1130000000	257
47.1430000000	214
47.1730000000	165
47.2030000000	157
47.2330000000	130
47.2630000000	97
47.2930000000	102
47.3230000000	85
47.3530000000	73
47.3830000000	62
47.4130000000	71
47.4430000000	75
47.4730000000	79
47.5030000000	77
47.5330000000	82
47.5630000000	79
47.5930000000	85
47.6230000000	85
47.6530000000	94
47.6830000000	88
47.7130000000	70
47.7430000000	66
47.7730000000	61
47.8030000000	56
47.8330000000	76
47.8630000000	59
47.8930000000	66
47.9230000000	60
47.9530000000	52
47.9830000000	59
48.0130000000	64
48.0430000000	51
48.0730000000	52
48.1030000000	57
48.1330000000	58
48.1630000000	61
48.1930000000	59
48.2230000000	53
48.2530000000	62
48.2830000000	65
48.3130000000	58
48.3430000000	56
48.3730000000	45
48.4030000000	58
48.4330000000	59
48.4630000000	51
48.4930000000	48
48.5230000000	55
48.5530000000	57
48.5830000000	61
48.6130000000	54
48.6430000000	56
48.6730000000	53
48.7030000000	62
48.7330000000	55
48.7630000000	49
48.7930000000	50
48.8230000000	57
48.8530000000	47
48.8830000000	54
48.9130000000	56
48.9430000000	53
48.9730000000	54
49.0030000000	47
49.0330000000	50
49.0630000000	57
49.0930000000	58
49.1230000000	58
49.1530000000	55
49.1830000000	65
49.2130000000	54
49.2430000000	70
49.2730000000	58
49.3030000000	50
49.3330000000	43
49.3630000000	49
49.3930000000	41
49.4230000000	47
49.4530000000	53
49.4830000000	51
49.5130000000	53
49.5430000000	54
49.5730000000	52
49.6030000000	46
49.6330000000	57
49.6630000000	50
49.6930000000	44
49.7230000000	58
49.7530000000	61
49.7830000000	60
49.8130000000	65
49.8430000000	59
49.8730000000	54
49.9030000000	57
49.9330000000	52
49.9630000000	57
49.9930000000	52
50.0230000000	52
50.0530000000	58
50.0830000000	61
50.1130000000	61
50.1430000000	57
50.1730000000	57
50.2030000000	70
50.2330000000	57
50.2630000000	49
50.2930000000	63
50.3230000000	68
50.3530000000	58
50.3830000000	44
50.4130000000	66
50.4430000000	58
50.4730000000	75
50.5030000000	79
50.5330000000	73
50.5630000000	94
50.5930000000	82
50.6230000000	91
50.6530000000	87
50.6830000000	91
50.7130000000	84
50.7430000000	82
50.7730000000	74
50.8030000000	72
50.8330000000	79
50.8630000000	64
50.8930000000	60
50.9230000000	57
50.9530000000	53
50.9830000000	51
51.0130000000	49
51.0430000000	44
51.0730000000	58
51.1030000000	61
51.1330000000	48
51.1630000000	48
51.1930000000	65
51.2230000000	58
51.2530000000	45
51.2830000000	47
51.3130000000	50
51.3430000000	51
51.3730000000	50
51.4030000000	55
51.4330000000	49
51.4630000000	45
51.4930000000	51
51.5230000000	60
51.5530000000	71
51.5830000000	58
51.6130000000	42
51.6430000000	46
51.6730000000	60
51.7030000000	59
51.7330000000	41
51.7630000000	50
51.7930000000	46
51.8230000000	48
51.8530000000	38
51.8830000000	49
51.9130000000	51
51.9430000000	49
51.9730000000	60
52.0030000000	70
52.0330000000	54
52.0630000000	46
52.0930000000	60
52.1230000000	75
52.1530000000	68
52.1830000000	99
52.2130000000	98
52.2430000000	96
52.2730000000	80
52.3030000000	78
52.3330000000	70
52.3630000000	75
52.3930000000	73
52.4230000000	56
52.4530000000	55
52.4830000000	51
52.5130000000	52
52.5430000000	45
52.5730000000	57
52.6030000000	58
52.6330000000	59
52.6630000000	47
52.6930000000	62
52.7230000000	61
52.7530000000	57
52.7830000000	50
52.8130000000	51
52.8430000000	48
52.8730000000	37
52.9030000000	57
52.9330000000	58
52.9630000000	49
52.9930000000	53
53.0230000000	45
53.0530000000	54
53.0830000000	60
53.1130000000	48
53.1430000000	47
53.1730000000	46
53.2030000000	51
53.2330000000	49
53.2630000000	59
53.2930000000	48
53.3230000000	53
53.3530000000	63
53.3830000000	37
53.4130000000	53
53.4430000000	51
53.4730000000	53
53.5030000000	51
53.5330000000	48
53.5630000000	41
53.5930000000	43
53.6230000000	57
53.6530000000	55
53.6830000000	44
53.7130000000	53
53.7430000000	54
53.7730000000	49
53.8030000000	54
53.8330000000	71
53.8630000000	54
53.8930000000	70
53.9230000000	90
53.9530000000	122
53.9830000000	120
54.0130000000	120
54.0430000000	104
54.0730000000	99
54.1030000000	98
54.1330000000	91
54.1630000000	80
54.1930000000	63
54.2230000000	53
54.2530000000	59
54.2830000000	52
54.3130000000	59
54.3430000000	62
54.3730000000	58
54.4030000000	47
54.4330000000	61
54.4630000000	56
54.4930000000	58
54.5230000000	45
54.5530000000	46
54.5830000000	55
54.6130000000	46
54.6430000000	55
54.6730000000	52
54.7030000000	48
54.7330000000	39
54.7630000000	39
54.7930000000	48
54.8230000000	39
54.8530000000	51
54.8830000000	50
54.9130000000	49
54.9430000000	65
54.9730000000	64
55.0030000000	74
55.0330000000	74
55.0630000000	81
55.0930000000	110
55.1230000000	121
55.1530000000	126
55.1830000000	117
55.2130000000	116
55.2430000000	100
55.2730000000	103
55.3030000000	79
55.3330000000	85
55.3630000000	77
55.3930000000	66
55.4230000000	94
55.4530000000	127
55.4830000000	121
55.5130000000	129
55.5430000000	125
55.5730000000	121
55.6030000000	116
55.6330000000	99
55.6630000000	100
55.6930000000	89
55.7230000000	77
55.7530000000	68
55.7830000000	47
55.8130000000	54
55.8430000000	52
55.8730000000	51
55.9030000000	61
55.9330000000	43
55.9630000000	53
55.9930000000	72
56.0230000000	45
56.0530000000	47
56.0830000000	51
56.1130000000	50
56.1430000000	42
56.1730000000	53
56.2030000000	48
56.2330000000	55
56.2630000000	49
56.2930000000	51
56.3230000000	54
56.3530000000	53
56.3830000000	49
56.4130000000	56
56.4430000000	55
56.4730000000	44
56.5030000000	43
56.5330000000	40
56.5630000000	33
56.5930000000	51
56.6230000000	45
56.6530000000	45
56.6830000000	61
56.7130000000	55
56.7430000000	51
56.7730000000	48
56.8030000000	34
56.8330000000	43
56.8630000000	47
56.8930000000	44
56.9230000000	45
56.9530000000	43
56.9830000000	40
57.0130000000	40
57.0430000000	33
57.0730000000	39
57.1030000000	54
57.1330000000	50
57.1630000000	51
57.1930000000	42
57.2230000000	56
57.2530000000	41
57.2830000000	48
57.3130000000	37
57.3430000000	52
57.3730000000	55
57.4030000000	53
57.4330000000	42
57.4630000000	46
57.4930000000	37
57.5230000000	37
57.5530000000	41
57.5830000000	45
57.6130000000	44
57.6430000000	32
57.6730000000	50
57.7030000000	39
57.7330000000	52
57.7630000000	46
57.7930000000	34
57.8230000000	44
57.8530000000	43
57.8830000000	45
57.9130000000	43
57.9430000000	40
57.9730000000	47
58.0030000000	46
58.0330000000	68
58.0630000000	41
58.0930000000	41
58.1230000000	53
58.1530000000	30
58.1830000000	51
58.2130000000	42
58.2430000000	43
58.2730000000	50
58.3030000000	44
58.3330000000	45
58.3630000000	45
58.3930000000	46
58.4230000000	43
58.4530000000	53
58.4830000000	52
58.5130000000	50
58.5430000000	47
58.5730000000	46
58.6030000000	50
58.6330000000	57
58.6630000000	32
58.6930000000	43
58.7230000000	45
58.7530000000	43
58.7830000000	42
58.8130000000	48
58.8430000000	50
58.8730000000	45
58.9030000000	55
58.9330000000	44
58.9630000000	49
58.9930000000	57
59.0230000000	47
59.0530000000	37
59.0830000000	31
59.1130000000	42
59.1430000000	42
59.1730000000	44
59.2030000000	44
59.2330000000	46
59.2630000000	48
59.2930000000	58
59.3230000000	41
59.3530000000	39
59.3830000000	46
59.4130000000	50
59.4430000000	43
59.4730000000	46
59.5030000000	49
59.5330000000	48
59.5630000000	53
59.5930000000	48
59.6230000000	41
59.6530000000	44
59.6830000000	36
59.7130000000	38
59.7430000000	43
59.7730000000	47
59.8030000000	49
59.8330000000	49
59.8630000000	46
59.8930000000	44
59.9230000000	49
59.9530000000	37
59.9830000000	33
60.0130000000	58
60.0430000000	34
60.0730000000	35
60.1030000000	49
60.1330000000	52
60.1630000000	46
60.1930000000	53
60.2230000000	56
60.2530000000	75
60.2830000000	88
60.3130000000	90
60.3430000000	127
60.3730000000	133
60.4030000000	117
60.4330000000	113
60.4630000000	120
60.4930000000	98
60.5230000000	87
60.5530000000	86
60.5830000000	85
60.6130000000	71
60.6430000000	43
60.6730000000	51
60.7030000000	45
60.7330000000	49
60.7630000000	49
60.7930000000	36
60.8230000000	49
60.8530000000	43
60.8830000000	42
60.9130000000	50
60.9430000000	37
60.9730000000	44
61.0030000000	48
61.0330000000	46
61.0630000000	45
61.0930000000	50
61.1230000000	41
61.1530000000	33
61.1830000000	49
61.2130000000	39
61.2430000000	42
61.2730000000	59
61.3030000000	53
61.3330000000	46
61.3630000000	54
61.3930000000	67
61.4230000000	67
61.4530000000	71
61.4830000000	80
61.5130000000	87
61.5430000000	112
61.5730000000	134
61.6030000000	123
61.6330000000	126
61.6630000000	125
61.6930000000	104
61.7230000000	93
61.7530000000	91
61.7830000000	71
61.8130000000	48
61.8430000000	56
61.8730000000	47
61.9030000000	46
61.9330000000	43
61.9630000000	39
61.9930000000	37
62.0230000000	43
62.0530000000	32
62.0830000000	38
62.1130000000	43
62.1430000000	36
62.1730000000	36
62.2030000000	40
62.2330000000	41
62.2630000000	36
62.2930000000	28
62.3230000000	45
62.3530000000	45
62.3830000000	55
62.4130000000	43
62.4430000000	50
62.4730000000	40
62.5030000000	36
62.5330000000	40
62.5630000000	28
62.5930000000	41
62.6230000000	34
62.6530000000	42
62.6830000000	56
62.7130000000	53
62.7430000000	51
62.7730000000	35
62.8030000000	39
62.8330000000	44
62.8630000000	39
62.8930000000	38
62.9230000000	43
62.9530000000	37
62.9830000000	34
63.0130000000	38
63.0430000000	43
63.0730000000	45
63.1030000000	41
63.1330000000	38
63.1630000000	42
63.1930000000	44
63.2230000000	38
63.2530000000	35
63.2830000000	39
63.3130000000	48
63.3430000000	47
63.3730000000	42
63.4030000000	51
63.4330000000	52
63.4630000000	47
63.4930000000	43
63.5230000000	50
63.5530000000	36
63.5830000000	41
63.6130000000	47
63.6430000000	48
63.6730000000	43
63.7030000000	50
63.7330000000	34
63.7630000000	49
63.7930000000	39
63.8230000000	39
63.8530000000	38
63.8830000000	53
63.9130000000	45
63.9430000000	49
63.9730000000	59
64.0030000000	45
64.0330000000	37
64.0630000000	43
64.0930000000	53
64.1230000000	39
64.1530000000	36
64.1830000000	31
64.2130000000	36
64.2430000000	51
64.2730000000	50
64.3030000000	42
64.3330000000	46
64.3630000000	35
64.3930000000	42
64.4230000000	41
64.4530000000	49
64.4830000000	35
64.5130000000	40
64.5430000000	44
64.5730000000	47
64.6030000000	42
64.6330000000	44
64.6630000000	44
64.6930000000	51
64.7230000000	55
64.7530000000	58
64.7830000000	42
64.8130000000	51
64.8430000000	52
64.8730000000	49
64.9030000000	54
64.9330000000	43
64.9630000000	35
64.9930000000	39
65.0230000000	45
65.0530000000	40
65.0830000000	38
65.1130000000	47
65.1430000000	41
65.1730000000	46
65.2030000000	35
65.2330000000	37
65.2630000000	37
65.2930000000	43
65.3230000000	39
65.3530000000	34
65.3830000000	37
65.4130000000	43
65.4430000000	38
65.4730000000	36
65.5030000000	45
65.5330000000	40
65.5630000000	37
65.5930000000	42
65.6230000000	55
65.6530000000	41
65.6830000000	34
65.7130000000	48
65.7430000000	38
65.7730000000	38
65.8030000000	43
65.8330000000	45
65.8630000000	35
65.8930000000	40
65.9230000000	45
65.9530000000	49
65.9830000000	42
66.0130000000	48
66.0430000000	50
66.0730000000	47
66.1030000000	48
66.1330000000	53
66.1630000000	38
66.1930000000	59
66.2230000000	64
66.2530000000	76
66.2830000000	81
66.3130000000	115
66.3430000000	141
66.3730000000	157
66.4030000000	185
66.4330000000	148
66.4630000000	146
66.4930000000	142
66.5230000000	123
66.5530000000	107
66.5830000000	110
66.6130000000	98
66.6430000000	61
66.6730000000	86
66.7030000000	72
66.7330000000	59
66.7630000000	60
66.7930000000	49
66.8230000000	55
66.8530000000	44
66.8830000000	52
66.9130000000	46
66.9430000000	64
66.9730000000	39
67.0030000000	49
67.0330000000	44
67.0630000000	44
67.0930000000	43
67.1230000000	33
67.1530000000	34
67.1830000000	40
67.2130000000	40
67.2430000000	41
67.2730000000	43
67.3030000000	44
67.3330000000	49
67.3630000000	47
67.3930000000	35
67.4230000000	40
67.4530000000	42
67.4830000000	40
67.5130000000	46
67.5430000000	33
67.5730000000	33
67.6030000000	40
67.6330000000	37
67.6630000000	39
67.6930000000	41
67.7230000000	43
67.7530000000	42
67.7830000000	47
67.8130000000	41
67.8430000000	29
67.8730000000	35
67.9030000000	50
67.9330000000	41
67.9630000000	48
67.9930000000	47
68.0230000000	37
68.0530000000	43
68.0830000000	47
68.1130000000	39
68.1430000000	41
68.1730000000	35
68.2030000000	31
68.2330000000	31
68.2630000000	33
68.2930000000	38
68.3230000000	44
68.3530000000	47
68.3830000000	35
68.4130000000	26
68.4430000000	45
68.4730000000	35
68.5030000000	42
68.5330000000	42
68.5630000000	41
68.5930000000	44
68.6230000000	42
68.6530000000	40
68.6830000000	32
68.7130000000	36
68.7430000000	38
68.7730000000	42
68.8030000000	53
68.8330000000	38
68.8630000000	31
68.8930000000	39
68.9230000000	55
68.9530000000	35
68.9830000000	38
69.0130000000	35
69.0430000000	37
69.0730000000	42
69.1030000000	45
69.1330000000	33
69.1630000000	52
69.1930000000	45
69.2230000000	35
69.2530000000	41
69.2830000000	43
69.3130000000	35
69.3430000000	49
69.3730000000	56
69.4030000000	47
69.4330000000	45
69.4630000000	47
69.4930000000	52
69.5230000000	44
69.5530000000	40
69.5830000000	52
69.6130000000	55
69.6430000000	46
69.6730000000	38
69.7030000000	36
69.7330000000	49
69.7630000000	47
69.7930000000	55
69.8230000000	37
69.8530000000	35
69.8830000000	43
69.9130000000	49
69.9430000000	51
69.9730000000	41
70.0030000000	39
70.0330000000	37
70.0630000000	35
70.0930000000	37
70.1230000000	49
70.1530000000	41
70.1830000000	35
70.2130000000	34
70.2430000000	37
70.2730000000	36
70.3030000000	36
70.3330000000	39
70.3630000000	40
70.3930000000	31
70.4230000000	38
70.4530000000	51
70.4830000000	44
70.5130000000	50
70.5430000000	54
70.5730000000	43
70.6030000000	34
70.6330000000	45
70.6630000000	43
70.6930000000	34
70.7230000000	37
70.7530000000	37
70.7830000000	39
70.8130000000	42
70.8430000000	53
70.8730000000	39
70.9030000000	40
70.9330000000	41
70.9630000000	53
70.9930000000	43
71.0230000000	38
71.0530000000	39
71.0830000000	36
71.1130000000	41
71.1430000000	46
71.1730000000	47
71.2030000000	46
71.2330000000	43
71.2630000000	40
71.2930000000	52
71.3230000000	54
71.3530000000	36
71.3830000000	39
71.4130000000	43
71.4430000000	38
71.4730000000	30
71.5030000000	35
71.5330000000	37
71.5630000000	40
71.5930000000	54
71.6230000000	40
71.6530000000	49
71.6830000000	44
71.7130000000	54
71.7430000000	35
71.7730000000	35
71.8030000000	47
71.8330000000	50
71.8630000000	36
71.8930000000	45
71.9230000000	50
71.9530000000	52
71.9830000000	42
72.0130000000	47
72.0430000000	55
72.0730000000	64
72.1030000000	55
72.1330000000	82
72.1630000000	52
72.1930000000	52
72.2230000000	50
72.2530000000	59
72.2830000000	60
72.3130000000	59
72.3430000000	41
72.3730000000	67
72.4030000000	61
72.4330000000	68
72.4630000000	78
72.4930000000	79
72.5230000000	116
72.5530000000	113
72.5830000000	109
72.6130000000	96
72.6430000000	105
72.6730000000	87
72.7030000000	85
72.7330000000	87
72.7630000000	71
72.7930000000	83
72.8230000000	56
72.8530000000	76
72.8830000000	80
72.9130000000	79
72.9430000000	115
72.9730000000	124
73.0030000000	154
73.0330000000	166
73.0630000000	156
73.0930000000	150
73.1230000000	116
73.1530000000	113
73.1830000000	118
73.2130000000	118
73.2430000000	104
73.2730000000	91
73.3030000000	75
73.3330000000	68
73.3630000000	62
73.3930000000	64
73.4230000000	50
73.4530000000	51
73.4830000000	57
73.5130000000	54
73.5430000000	40
73.5730000000	40
73.6030000000	44
73.6330000000	43
73.6630000000	40
73.6930000000	41
73.7230000000	41
73.7530000000	39
73.7830000000	45
73.8130000000	44
73.8430000000	48
73.8730000000	38
73.9030000000	54
73.9330000000	41
73.9630000000	35
73.9930000000	45
74.0230000000	50
74.0530000000	33
74.0830000000	39
74.1130000000	43
74.1430000000	43
74.1730000000	40
74.2030000000	43
74.2330000000	43
74.2630000000	52
74.2930000000	52
74.3230000000	49
74.3530000000	39
74.3830000000	48
74.4130000000	41
74.4430000000	39
74.4730000000	42
74.5030000000	45
74.5330000000	46
74.5630000000	44
74.5930000000	46
74.6230000000	40
74.6530000000	45
74.6830000000	42
74.7130000000	39
74.7430000000	46
74.7730000000	46
74.8030000000	46
74.8330000000	56
74.8630000000	41
74.8930000000	60
74.9230000000	62
74.9530000000	53
74.9830000000	58
75.0130000000	51
75.0430000000	45
75.0730000000	46
75.1030000000	52
75.1330000000	52
75.1630000000	44
75.1930000000	45
75.2230000000	46
75.2530000000	51
75.2830000000	53
75.3130000000	52
75.3430000000	51
75.3730000000	49
75.4030000000	43
75.4330000000	41
75.4630000000	47
75.4930000000	43
75.5230000000	49
75.5530000000	45
75.5830000000	51
75.6130000000	39
75.6430000000	50
75.6730000000	38
75.7030000000	43
75.7330000000	33
75.7630000000	48
75.7930000000	34
75.8230000000	42
75.8530000000	38
75.8830000000	43
75.9130000000	36
75.9430000000	34
75.9730000000	39
76.0030000000	47
76.0330000000	50
76.0630000000	35
76.0930000000	34
76.1230000000	49
76.1530000000	42
76.1830000000	36
76.2130000000	49
76.2430000000	38
76.2730000000	40
76.3030000000	38
76.3330000000	41
76.3630000000	42
76.3930000000	38
76.4230000000	46
76.4530000000	32
76.4830000000	38
76.5130000000	33
76.5430000000	40
76.5730000000	42
76.6030000000	44
76.6330000000	39
76.6630000000	45
76.6930000000	39
76.7230000000	32
76.7530000000	43
76.7830000000	40
76.8130000000	37
76.8430000000	33
76.8730000000	47
76.9030000000	26
76.9330000000	49
76.9630000000	47
76.9930000000	31
77.0230000000	48
77.0530000000	35
77.0830000000	33
77.1130000000	42
77.1430000000	47
77.1730000000	48
77.2030000000	37
77.2330000000	38
77.2630000000	34
77.2930000000	46
77.3230000000	46
77.3530000000	35
77.3830000000	45
77.4130000000	38
77.4430000000	42
77.4730000000	60
77.5030000000	45
77.5330000000	50
77.5630000000	54
77.5930000000	61
77.6230000000	66
77.6530000000	79
77.6830000000	87
77.7130000000	73
77.7430000000	75
77.7730000000	60
77.8030000000	52
77.8330000000	63
77.8630000000	67
77.8930000000	62
77.9230000000	57
77.9530000000	49
77.9830000000	46
78.0130000000	35
78.0430000000	58
78.0730000000	61
78.1030000000	58
78.1330000000	46
78.1630000000	53
78.1930000000	50
78.2230000000	42
78.2530000000	44
78.2830000000	39
78.3130000000	37
78.3430000000	44
78.3730000000	51
78.4030000000	38
78.4330000000	30
78.4630000000	39
78.4930000000	45
78.5230000000	48
78.5530000000	34
78.5830000000	51
78.6130000000	42
78.6430000000	45
78.6730000000	42
78.7030000000	41
78.7330000000	50
78.7630000000	58
78.7930000000	40
78.8230000000	49
78.8530000000	39
78.8830000000	46
78.9130000000	48
78.9430000000	51
78.9730000000	53
79.0030000000	53
79.0330000000	38
79.0630000000	39
79.0930000000	32
79.1230000000	35
79.1530000000	33
79.1830000000	46
79.2130000000	44
79.2430000000	35
79.2730000000	39
79.3030000000	45
79.3330000000	35
79.3630000000	51
79.3930000000	45
79.4230000000	31
79.4530000000	50
79.4830000000	52
79.5130000000	43
79.5430000000	28
79.5730000000	32
79.6030000000	38
79.6330000000	37
79.6630000000	43
79.6930000000	35
79.7230000000	29
79.7530000000	35
79.7830000000	39
79.8130000000	51
79.8430000000	49
79.8730000000	47
79.9030000000	50
79.9330000000	53
79.9630000000	55
79.9930000000	32
80.0230000000	39
80.0530000000	48
80.0830000000	42
80.1130000000	38
80.1430000000	37
80.1730000000	46
80.2030000000	46
80.2330000000	35
80.2630000000	39
80.2930000000	47
80.3230000000	38
80.3530000000	47
80.3830000000	34
80.4130000000	27
80.4430000000	39
80.4730000000	45
80.5030000000	34
80.5330000000	40
80.5630000000	42
80.5930000000	56
80.6230000000	42
80.6530000000	39
80.6830000000	55
80.7130000000	54
80.7430000000	62
80.7730000000	50
80.8030000000	64
80.8330000000	55
80.8630000000	63
80.8930000000	58
80.9230000000	55
80.9530000000	58
80.9830000000	45
81.0130000000	49
81.0430000000	47
81.0730000000	45
81.1030000000	44
81.1330000000	48
81.1630000000	52
81.1930000000	50
81.2230000000	40
81.2530000000	36
81.2830000000	42
81.3130000000	47
81.3430000000	60
81.3730000000	42
81.4030000000	37
81.4330000000	42
81.4630000000	31
81.4930000000	41
81.5230000000	48
81.5530000000	43
81.5830000000	43
81.6130000000	37
81.6430000000	46
81.6730000000	45
81.7030000000	51
81.7330000000	25
81.7630000000	27
81.7930000000	42
81.8230000000	28
81.8530000000	37
81.8830000000	37
81.9130000000	34
81.9430000000	29
81.9730000000	50
82.0030000000	43
82.0330000000	39
82.0630000000	37
82.0930000000	25
82.1230000000	37
82.1530000000	38
82.1830000000	47
82.2130000000	39
82.2430000000	37
82.2730000000	39
82.3030000000	42
82.3330000000	35
82.3630000000	26
82.3930000000	46
82.4230000000	44
82.4530000000	35
82.4830000000	35
82.5130000000	28
82.5430000000	33
82.5730000000	36
82.6030000000	39
82.6330000000	32
82.6630000000	27
82.6930000000	29
82.7230000000	32
82.7530000000	44
82.7830000000	39
82.8130000000	33
82.8430000000	33
82.8730000000	35
82.9030000000	42
82.9330000000	38
82.9630000000	32
82.9930000000	37
83.0230000000	42
83.0530000000	55
83.0830000000	43
83.1130000000	41
83.1430000000	38
83.1730000000	33
83.2030000000	34
83.2330000000	49
83.2630000000	39
83.2930000000	45
83.3230000000	42
83.3530000000	41
83.3830000000	58
83.4130000000	47
83.4430000000	53
83.4730000000	65
83.5030000000	51
83.5330000000	46
83.5630000000	45
83.5930000000	71
83.6230000000	53
83.6530000000	40
83.6830000000	53
83.7130000000	49
83.7430000000	56
83.7730000000	38
83.8030000000	41
83.8330000000	42
83.8630000000	39
83.8930000000	41
83.9230000000	40
83.9530000000	35
83.9830000000	34
84.0130000000	41
84.0430000000	23
84.0730000000	39
84.1030000000	44
84.1330000000	40
84.1630000000	31
84.1930000000	17
84.2230000000	45
84.2530000000	42
84.2830000000	28
84.3130000000	28
84.3430000000	37
84.3730000000	38
84.4030000000	33
84.4330000000	36
84.4630000000	45
84.4930000000	24
84.5230000000	34
84.5530000000	36
84.5830000000	39
84.6130000000	36
84.6430000000	39
84.6730000000	37
84.7030000000	34
84.7330000000	41
84.7630000000	47
84.7930000000	31
84.8230000000	32
84.8530000000	25
84.8830000000	37
84.9130000000	36
84.9430000000	41
84.9730000000	34
85.0030000000	38
85.0330000000	31
85.0630000000	25
85.0930000000	29
85.1230000000	34
85.1530000000	43
85.1830000000	52
85.2130000000	37
85.2430000000	42
85.2730000000	39
85.3030000000	29
85.3330000000	30
85.3630000000	26
85.3930000000	33
85.4230000000	40
85.4530000000	31
85.4830000000	49
85.5130000000	38
85.5430000000	41
85.5730000000	31
85.6030000000	33
85.6330000000	54
85.6630000000	45
85.6930000000	51
85.7230000000	54
85.7530000000	47
85.7830000000	44
85.8130000000	38
85.8430000000	49
85.8730000000	45
85.9030000000	36
85.9330000000	44
85.9630000000	42
85.9930000000	40
86.0230000000	37
86.0530000000	42
86.0830000000	38
86.1130000000	43
86.1430000000	46
86.1730000000	42
86.2030000000	36
86.2330000000	54
86.2630000000	38
86.2930000000	36
86.3230000000	43
86.3530000000	46
86.3830000000	40
86.4130000000	40
86.4430000000	37
86.4730000000	41
86.5030000000	44
86.5330000000	36
86.5630000000	33
86.5930000000	42
86.6230000000	42
86.6530000000	39
86.6830000000	37
86.7130000000	48
86.7430000000	48
86.7730000000	46
86.8030000000	42
86.8330000000	41
86.8630000000	35
86.8930000000	40
86.9230000000	47
86.9530000000	53
86.9830000000	43
87.0130000000	37
87.0430000000	47
87.0730000000	55
87.1030000000	49
87.1330000000	41
87.1630000000	48
87.1930000000	48
87.2230000000	42
87.2530000000	41
87.2830000000	39
87.3130000000	42
87.3430000000	35
87.3730000000	35
87.4030000000	41
87.4330000000	36
87.4630000000	46
87.4930000000	43
87.5230000000	45
87.5530000000	37
87.5830000000	46
87.6130000000	44
87.6430000000	38
87.6730000000	41
87.7030000000	37
87.7330000000	38
87.7630000000	38
87.7930000000	30
87.8230000000	44
87.8530000000	39
87.8830000000	43
87.9130000000	43
87.9430000000	38
87.9730000000	44
88.0030000000	47
88.0330000000	40
88.0630000000	37
88.0930000000	45
88.1230000000	37
88.1530000000	40
88.1830000000	44
88.2130000000	32
88.2430000000	42
88.2730000000	39
88.3030000000	44
88.3330000000	50
88.3630000000	54
88.3930000000	39
88.4230000000	50
88.4530000000	46
88.4830000000	40
88.5130000000	42
88.5430000000	44
88.5730000000	46
88.6030000000	43
88.6330000000	47
88.6630000000	48
88.6930000000	40
88.7230000000	50
88.7530000000	34
88.7830000000	41
88.8130000000	37
88.8430000000	45
88.8730000000	44
88.9030000000	41
88.9330000000	40
88.9630000000	34
88.9930000000	54
89.0230000000	46
89.0530000000	39
89.0830000000	38
89.1130000000	38
89.1430000000	29
89.1730000000	27
89.2030000000	42
89.2330000000	46
89.2630000000	33
89.2930000000	32
89.3230000000	36
89.3530000000	35
89.3830000000	40
89.4130000000	40
89.4430000000	55
89.4730000000	58
89.5030000000	39
89.5330000000	47
89.5630000000	50
89.5930000000	50
89.6230000000	45
89.6530000000	37
89.6830000000	50
89.7130000000	59
89.7430000000	52
89.7730000000	43
89.8030000000	51
89.8330000000	54
89.8630000000	45
89.8930000000	51
89.9230000000	39
89.9530000000	44
89.9830000000	58
90.0130000000	47
90.0430000000	54
90.0730000000	39
90.1030000000	40
90.1330000000	50
90.1630000000	32
90.1930000000	40
90.2230000000	40
90.2530000000	40
90.2830000000	44
90.3130000000	44
90.3430000000	42
90.3730000000	43
90.4030000000	40
90.4330000000	40
90.4630000000	33
90.4930000000	40
90.5230000000	39
90.5530000000	43
90.5830000000	41
90.6130000000	51
90.6430000000	35
90.6730000000	40
90.7030000000	46
90.7330000000	39
90.7630000000	43
90.7930000000	33
90.8230000000	47
90.8530000000	39
90.8830000000	38
90.9130000000	39
90.9430000000	35
90.9730000000	51
91.0030000000	49
91.0330000000	39
91.0630000000	32
91.0930000000	33
91.1230000000	34
91.1530000000	37
91.1830000000	35
91.2130000000	37
91.2430000000	43
91.2730000000	36
91.3030000000	36
91.3330000000	52
91.3630000000	31
91.3930000000	34
91.4230000000	40
91.4530000000	42
91.4830000000	41
91.5130000000	40
91.5430000000	32
91.5730000000	35
91.6030000000	38
91.6330000000	35
91.6630000000	36
91.6930000000	44
91.7230000000	47
91.7530000000	33
91.7830000000	46
91.8130000000	42
91.8430000000	38
91.8730000000	27
91.9030000000	34
91.9330000000	35
91.9630000000	39
91.9930000000	35
92.0230000000	33
92.0530000000	37
92.0830000000	36
92.1130000000	27
92.1430000000	37
92.1730000000	44
92.2030000000	32
92.2330000000	28
92.2630000000	29
92.2930000000	25
92.3230000000	39
92.3530000000	32
92.3830000000	38
92.4130000000	49
92.4430000000	51
92.4730000000	40
92.5030000000	41
92.5330000000	45
92.5630000000	39
92.5930000000	31
92.6230000000	41
92.6530000000	32
92.6830000000	33
92.7130000000	43
92.7430000000	43
92.7730000000	38
92.8030000000	44
92.8330000000	40
92.8630000000	41
92.8930000000	28
92.9230000000	34
92.9530000000	34
92.9830000000	37
93.0130000000	37
93.0430000000	37
93.0730000000	33
93.1030000000	33
93.1330000000	31
93.1630000000	35
93.1930000000	31
93.2230000000	35
93.2530000000	43
93.2830000000	33
93.3130000000	31
93.3430000000	43
93.3730000000	34
93.4030000000	36
93.4330000000	37
93.4630000000	53
93.4930000000	31
93.5230000000	39
93.5530000000	44
93.5830000000	43
93.6130000000	31
93.6430000000	41
93.6730000000	36
93.7030000000	33
93.7330000000	46
93.7630000000	46
93.7930000000	33
93.8230000000	38
93.8530000000	38
93.8830000000	45
93.9130000000	39
93.9430000000	34
93.9730000000	39
94.0030000000	44
94.0330000000	37
94.0630000000	40
94.0930000000	50
94.1230000000	38
94.1530000000	38
94.1830000000	39
94.2130000000	37
94.2430000000	39
94.2730000000	31
94.3030000000	29
94.3330000000	31
94.3630000000	37
94.3930000000	35
94.4230000000	42
94.4530000000	33
94.4830000000	31
94.5130000000	33
94.5430000000	40
94.5730000000	39
94.6030000000	37
94.6330000000	42
94.6630000000	35
94.6930000000	36
94.7230000000	46
94.7530000000	37
94.7830000000	43
94.8130000000	29
94.8430000000	41
94.8730000000	34
94.9030000000	32
94.9330000000	37
94.9630000000	41
94.9930000000	37
95.0230000000	35
95.0530000000	55
95.0830000000	37
95.1130000000	49
95.1430000000	34
95.1730000000	37
95.2030000000	44
95.2330000000	35
95.2630000000	36
95.2930000000	43
95.3230000000	47
95.3530000000	38
95.3830000000	43
95.4130000000	39
95.4430000000	28
95.4730000000	43
95.5030000000	34
95.5330000000	27
95.5630000000	34
95.5930000000	35
95.6230000000	37
95.6530000000	32
95.6830000000	30
95.7130000000	40
95.7430000000	36
95.7730000000	31
95.8030000000	24
95.8330000000	32
95.8630000000	38
95.8930000000	34
95.9230000000	36
95.9530000000	31
95.9830000000	35
96.0130000000	42
96.0430000000	42
96.0730000000	39
96.1030000000	36
96.1330000000	36
96.1630000000	37
96.1930000000	45
96.2230000000	48
96.2530000000	31
96.2830000000	45
96.3130000000	36
96.3430000000	52
96.3730000000	43
96.4030000000	38
96.4330000000	29
96.4630000000	37
96.4930000000	38
96.5230000000	55
96.5530000000	49
96.5830000000	45
96.6130000000	54
96.6430000000	45
96.6730000000	46
96.7030000000	34
96.7330000000	47
96.7630000000	45
96.7930000000	35
96.8230000000	33
96.8530000000	49
96.8830000000	54
96.9130000000	28
96.9430000000	47
96.9730000000	44
97.0030000000	37
97.0330000000	48
97.0630000000	40
97.0930000000	35
97.1230000000	32
97.1530000000	38
97.1830000000	33
97.2130000000	34
97.2430000000	31
97.2730000000	34
97.3030000000	32
97.3330000000	43
97.3630000000	40
97.3930000000	31
97.4230000000	37
97.4530000000	41
97.4830000000	35
97.5130000000	35
97.5430000000	38
97.5730000000	30
97.6030000000	49
97.6330000000	43
97.6630000000	36
97.6930000000	44
97.7230000000	49
97.7530000000	29
97.7830000000	36
97.8130000000	28
97.8430000000	38
97.8730000000	45
97.9030000000	33
97.9330000000	41
97.9630000000	31
97.9930000000	34
98.0230000000	40
98.0530000000	32
98.0830000000	45
98.1130000000	41
98.1430000000	35
98.1730000000	34
98.2030000000	43
98.2330000000	33
98.2630000000	32
98.2930000000	37
98.3230000000	37
98.3530000000	27
98.3830000000	34
98.4130000000	44
98.4430000000	30
98.4730000000	41
98.5030000000	41
98.5330000000	48
98.5630000000	38
98.5930000000	41
98.6230000000	42
98.6530000000	32
98.6830000000	33
98.7130000000	36
98.7430000000	34
98.7730000000	41
98.8030000000	41
98.8330000000	31
98.8630000000	35
98.8930000000	35
98.9230000000	38
98.9530000000	35
98.9830000000	32
99.0130000000	34
99.0430000000	47
99.0730000000	41
99.1030000000	39
99.1330000000	48
99.1630000000	45
99.1930000000	30
99.2230000000	40
99.2530000000	31
99.2830000000	34
99.3130000000	32
99.3430000000	30
99.3730000000	44
99.4030000000	28
99.4330000000	45
99.4630000000	38
99.4930000000	28
99.5230000000	40
99.5530000000	34
99.5830000000	37
99.6130000000	35
99.6430000000	33
99.6730000000	31
99.7030000000	26
99.7330000000	40
99.7630000000	28
99.7930000000	42
99.8230000000	48
99.8530000000	35
99.8830000000	39
99.9130000000	47
99.9430000000	34
99.9730000000	33
100.0030000000	32
100.0330000000	29
100.0630000000	36
100.0930000000	36
100.1230000000	30
100.1530000000	36
100.1830000000	42
100.2130000000	36
100.2430000000	31
100.2730000000	35
100.3030000000	33
100.3330000000	21
100.3630000000	31
100.3930000000	29
100.4230000000	30
100.4530000000	36
100.4830000000	46
100.5130000000	44
100.5430000000	40
100.5730000000	29
100.6030000000	29
100.6330000000	29
100.6630000000	38
100.6930000000	42
100.7230000000	32
100.7530000000	39
100.7830000000	31
100.8130000000	41
100.8430000000	43
100.8730000000	34
100.9030000000	34
100.9330000000	39
100.9630000000	30
100.9930000000	35
101.0230000000	30
101.0530000000	31
101.0830000000	28
101.1130000000	32
101.1430000000	41
101.1730000000	40
101.2030000000	34
101.2330000000	34
101.2630000000	20
101.2930000000	30
101.3230000000	47
101.3530000000	34
101.3830000000	36
101.4130000000	29
101.4430000000	34
101.4730000000	33
101.5030000000	31
101.5330000000	32
101.5630000000	27
101.5930000000	34
101.6230000000	39
101.6530000000	35
101.6830000000	42
101.7130000000	42
101.7430000000	21
101.7730000000	26
101.8030000000	35
101.8330000000	41
101.8630000000	43
101.8930000000	38
101.9230000000	32
101.9530000000	30
101.9830000000	36
102.0130000000	39
102.0430000000	39
102.0730000000	40
102.1030000000	37
102.1330000000	33
102.1630000000	38
102.1930000000	29
102.2230000000	45
102.2530000000	32
102.2830000000	35
102.3130000000	33
102.3430000000	36
102.3730000000	27
102.4030000000	37
102.4330000000	32
102.4630000000	39
102.4930000000	33
102.5230000000	37
102.5530000000	42
102.5830000000	42
102.6130000000	25
102.6430000000	38
102.6730000000	31
102.7030000000	43
102.7330000000	37
102.7630000000	33
102.7930000000	30
102.8230000000	34
102.8530000000	39
102.8830000000	37
102.9130000000	39
102.9430000000	42
102.9730000000	33
103.0030000000	43
103.0330000000	29
103.0630000000	31
103.0930000000	34
103.1230000000	30
103.1530000000	43
103.1830000000	46
103.2130000000	36
103.2430000000	28
103.2730000000	29
103.3030000000	34
103.3330000000	33
103.3630000000	40
103.3930000000	29
103.4230000000	35
103.4530000000	33
103.4830000000	22
103.5130000000	34
103.5430000000	42
103.5730000000	31
103.6030000000	29
103.6330000000	30
103.6630000000	30
103.6930000000	28
103.7230000000	34
103.7530000000	32
103.7830000000	35
103.8130000000	35
103.8430000000	36
103.8730000000	39
103.9030000000	44
103.9330000000	47
103.9630000000	40
103.9930000000	34
104.0230000000	40
104.0530000000	37
104.0830000000	29
104.1130000000	34
104.1430000000	34
104.1730000000	35
104.2030000000	35
104.2330000000	27
104.2630000000	35
104.2930000000	38
104.3230000000	41
104.3530000000	35
104.3830000000	39
104.4130000000	38
104.4430000000	41
104.4730000000	38
104.5030000000	51
104.5330000000	47
104.5630000000	45
104.5930000000	43
104.6230000000	32
104.6530000000	35
104.6830000000	39
104.7130000000	47
104.7430000000	42
104.7730000000	36
104.8030000000	38
104.8330000000	40
104.8630000000	48
104.8930000000	43
104.9230000000	39
104.9530000000	50
104.9830000000	44
105.0130000000	36
105.0430000000	36
105.0730000000	35
105.1030000000	37
105.1330000000	46
105.1630000000	49
105.1930000000	38
105.2230000000	39
105.2530000000	52
105.2830000000	45
105.3130000000	32
105.3430000000	28
105.3730000000	34
105.4030000000	40
105.4330000000	32
105.4630000000	38
105.4930000000	30
105.5230000000	34
105.5530000000	42
105.5830000000	38
105.6130000000	29
105.6430000000	44
105.6730000000	42
105.7030000000	32
105.7330000000	40
105.7630000000	42
105.7930000000	32
105.8230000000	32
105.8530000000	43
105.8830000000	40
105.9130000000	42
105.9430000000	35
105.9730000000	34
106.0030000000	40
106.0330000000	38
106.0630000000	41
106.0930000000	48
106.1230000000	37
106.1530000000	39
106.1830000000	38
106.2130000000	22
106.2430000000	41
106.2730000000	33
106.3030000000	45
106.3330000000	33
106.3630000000	34
106.3930000000	26
106.4230000000	34
106.4530000000	32
106.4830000000	20
106.5130000000	36
106.5430000000	38
106.5730000000	45
106.6030000000	33
106.6330000000	39
106.6630000000	34
106.6930000000	40
106.7230000000	36
106.7530000000	41
106.7830000000	41
106.8130000000	36
106.8430000000	40
106.8730000000	52
106.9030000000	44
106.9330000000	51
106.9630000000	45
106.9930000000	46
107.0230000000	44
107.0530000000	41
107.0830000000	29
107.1130000000	40
107.1430000000	42
107.1730000000	44
107.2030000000	37
107.2330000000	41
107.2630000000	43
107.2930000000	41
107.3230000000	43
107.3530000000	42
107.3830000000	40
107.4130000000	41
107.4430000000	37
107.4730000000	42
107.5030000000	29
107.5330000000	36
107.5630000000	38
107.5930000000	28
107.6230000000	28
107.6530000000	37
107.6830000000	32
107.7130000000	34
107.7430000000	33
107.7730000000	33
107.8030000000	44
107.8330000000	43
107.8630000000	39
107.8930000000	43
107.9230000000	36
107.9530000000	32
107.9830000000	48
108.0130000000	40
108.0430000000	41
108.0730000000	30
108.1030000000	27
108.1330000000	35
108.1630000000	47
108.1930000000	42
108.2230000000	51
108.2530000000	59
108.2830000000	59
108.3130000000	28
108.3430000000	31
108.3730000000	42
108.4030000000	35
108.4330000000	36
108.4630000000	28
108.4930000000	30
108.5230000000	39
108.5530000000	45
108.5830000000	31
108.6130000000	29
108.6430000000	38
108.6730000000	39
108.7030000000	32
108.7330000000	31
108.7630000000	30
108.7930000000	35
108.8230000000	41
108.8530000000	31
108.8830000000	44
108.9130000000	34
108.9430000000	35
108.9730000000	36
109.0030000000	34
109.0330000000	25
109.0630000000	32
109.0930000000	36
109.1230000000	40
109.1530000000	36
109.1830000000	47
109.2130000000	32
109.2430000000	33
109.2730000000	37
109.3030000000	44
109.3330000000	38
109.3630000000	42
109.3930000000	29
109.4230000000	43
109.4530000000	24
109.4830000000	22
109.5130000000	34
109.5430000000	41
109.5730000000	43
109.6030000000	42
109.6330000000	44
109.6630000000	40
109.6930000000	46
109.7230000000	33
109.7530000000	42
109.7830000000	27
109.8130000000	47
109.8430000000	44
109.8730000000	37
109.9030000000	37
109.9330000000	44
109.9630000000	39
109.9930000000	45
110.0230000000	35
110.0530000000	41
110.0830000000	44
110.1130000000	52
110.1430000000	45
110.1730000000	38
110.2030000000	45
110.2330000000	39
110.2630000000	42
110.2930000000	37
110.3230000000	29
110.3530000000	43
110.3830000000	45
110.4130000000	45
110.4430000000	45
110.4730000000	45
110.5030000000	46
110.5330000000	34
110.5630000000	42
110.5930000000	35
110.6230000000	36
110.6530000000	35
110.6830000000	32
110.7130000000	39
110.7430000000	33
110.7730000000	35
110.8030000000	31
110.8330000000	42
110.8630000000	33
110.8930000000	36
110.9230000000	38
110.9530000000	43
110.9830000000	45
111.0130000000	41
111.0430000000	42
111.0730000000	37
111.1030000000	40
111.1330000000	41
111.1630000000	41
111.1930000000	45
111.2230000000	42
111.2530000000	45
111.2830000000	43
111.3130000000	44
111.3430000000	43
111.3730000000	32
111.4030000000	47
111.4330000000	52
111.4630000000	43
111.4930000000	33
111.5230000000	46
111.5530000000	44
111.5830000000	46
111.6130000000	50
111.6430000000	43
111.6730000000	33
111.7030000000	43
111.7330000000	30
111.7630000000	46
111.7930000000	41
111.8230000000	45
111.8530000000	43
111.8830000000	37
111.9130000000	34
111.9430000000	42
111.9730000000	39
112.0030000000	45
112.0330000000	34
112.0630000000	33
112.0930000000	50
112.1230000000	38
112.1530000000	41
112.1830000000	27
112.2130000000	43
112.2430000000	41
112.2730000000	33
112.3030000000	40
112.3330000000	42
112.3630000000	39
112.3930000000	32
112.4230000000	39
112.4530000000	37
112.4830000000	43
112.5130000000	36
112.5430000000	38
112.5730000000	37
112.6030000000	39
112.6330000000	46
112.6630000000	41
112.6930000000	45
112.7230000000	45
112.7530000000	39
112.7830000000	41
112.8130000000	46
112.8430000000	43
112.8730000000	29
112.9030000000	38
112.9330000000	38
112.9630000000	38
112.9930000000	44
113.0230000000	41
113.0530000000	62
113.0830000000	40
113.1130000000	59
113.1430000000	51
113.1730000000	59
113.2030000000	51
113.2330000000	67
113.2630000000	64
113.2930000000	74
113.3230000000	62
113.3530000000	60
113.3830000000	60
113.4130000000	59
113.4430000000	58
113.4730000000	52
113.5030000000	53
113.5330000000	36
113.5630000000	52
113.5930000000	46
113.6230000000	52
113.6530000000	49
113.6830000000	46
113.7130000000	56
113.7430000000	43
113.7730000000	49
113.8030000000	48
113.8330000000	53
113.8630000000	50
113.8930000000	45
113.9230000000	49
113.9530000000	36
113.9830000000	40
114.0130000000	32
114.0430000000	37
114.0730000000	40
114.1030000000	40
114.1330000000	64
114.1630000000	40
114.1930000000	40
114.2230000000	45
114.2530000000	39
114.2830000000	32
114.3130000000	37
114.3430000000	48
114.3730000000	42
114.4030000000	34
114.4330000000	45
114.4630000000	1
114.4930000000	1
114.5230000000	1
114.5530000000	1
114.5830000000	1
