0.3130000000	1
0.3430000000	1
0.3730000000	2
0.4030000000	1
0.4330000000	1
0.4630000000	1
0.4930000000	1
0.5230000000	1
0.5530000000	2
0.5830000000	1
0.6130000000	2
0.6430000000	1
0.6730000000	1
0.7030000000	1
0.7330000000	1
0.7630000000	1
0.7930000000	1
0.8230000000	1
0.8530000000	1
0.8830000000	1
0.9130000000	1
0.9430000000	1
0.9730000000	2
1.0030000000	1
1.0330000000	1
1.0630000000	1
1.0930000000	1
1.1230000000	1
1.1530000000	1
1.1830000000	1
1.2130000000	1
1.2430000000	1
1.2730000000	1
1.3030000000	1
1.3330000000	2
1.3630000000	1
1.3930000000	2
1.4230000000	1
1.4530000000	1
1.4830000000	2
1.5130000000	1
1.5430000000	1
1.5730000000	2
1.6030000000	2
1.6330000000	1
1.6630000000	1
1.6930000000	1
1.7230000000	1
1.7530000000	2
1.7830000000	1
1.8130000000	1
1.8430000000	1
1.8730000000	1
1.9030000000	1
1.9330000000	1
1.9630000000	1
1.9930000000	2
2.0230000000	1
2.0530000000	1
2.0830000000	1
2.1130000000	1
2.1430000000	1
2.1730000000	1
2.2030000000	2
2.2330000000	1
2.2630000000	1
2.2930000000	3
2.3230000000	3
2.3530000000	1
2.3830000000	1
2.4130000000	1
2.4430000000	3
2.4730000000	3
2.5030000000	3
2.5330000000	3
2.5630000000	2
2.5930000000	1
2.6230000000	3
2.6530000000	2
2.6830000000	1
2.7130000000	1
2.7430000000	1
2.7730000000	1
2.8030000000	2
2.8330000000	1
2.8630000000	1
2.8930000000	1
2.9230000000	2
2.9530000000	2
2.9830000000	2
3.0130000000	1
3.0430000000	1
3.0730000000	2
3.1030000000	1
3.1330000000	2
3.1630000000	2
3.1930000000	1
3.2230000000	2
3.2530000000	3
3.2830000000	1
3.3130000000	2
3.3430000000	3
3.3730000000	3
3.4030000000	2
3.4330000000	2
3.4630000000	1
3.4930000000	2
3.5230000000	4
3.5530000000	2
3.5830000000	1
3.6130000000	3
3.6430000000	2
3.6730000000	1
3.7030000000	1
3.7330000000	3
3.7630000000	2
3.7930000000	2
3.8230000000	2
3.8530000000	2
3.8830000000	2
3.9130000000	4
3.9430000000	2
3.9730000000	5
4.0030000000	3
4.0330000000	4
4.0630000000	2
4.0930000000	1
4.1230000000	3
4.1530000000	3
4.1830000000	4
4.2130000000	1
4.2430000000	3
4.2730000000	4
4.3030000000	5
4.3330000000	7
4.3630000000	5
4.3930000000	5
4.4230000000	4
4.4530000000	9
4.4830000000	16
4.5130000000	27
4.5430000000	36
4.5730000000	50
4.6030000000	66
4.6330000000	92
4.6630000000	113
4.6930000000	115
4.7230000000	142
4.7530000000	144
4.7830000000	148
4.8130000000	121
4.8430000000	150
4.8730000000	127
4.9030000000	137
4.9330000000	123
4.9630000000	138
4.9930000000	147
5.0230000000	143
5.0530000000	138
5.0830000000	148
5.1130000000	137
5.1430000000	137
5.1730000000	141
5.2030000000	129
5.2330000000	129
5.2630000000	154
5.2930000000	118
5.3230000000	137
5.3530000000	124
5.3830000000	136
5.4130000000	153
5.4430000000	165
5.4730000000	131
5.5030000000	146
5.5330000000	150
5.5630000000	161
5.5930000000	138
5.6230000000	139
5.6530000000	167
5.6830000000	130
5.7130000000	136
5.7430000000	135
5.7730000000	125
5.8030000000	137
5.8330000000	167
5.8630000000	151
5.8930000000	155
5.9230000000	155
5.9530000000	161
5.9830000000	142
6.0130000000	150
6.0430000000	148
6.0730000000	148
6.1030000000	147
6.1330000000	146
6.1630000000	123
6.1930000000	138
6.2230000000	141
6.2530000000	147
6.2830000000	142
6.3130000000	154
6.3430000000	163
6.3730000000	147
6.4030000000	137
6.4330000000	161
6.4630000000	151
6.4930000000	156
6.5230000000	158
6.5530000000	137
6.5830000000	143
6.6130000000	158
6.6430000000	140
6.6730000000	123
6.7030000000	144
6.7330000000	163
6.7630000000	141
6.7930000000	137
6.8230000000	138
6.8530000000	143
6.8830000000	152
6.9130000000	142
6.9430000000	153
6.9730000000	149
7.0030000000	153
7.0330000000	163
7.0630000000	152
7.0930000000	141
7.1230000000	141
7.1530000000	162
7.1830000000	162
7.2130000000	161
7.2430000000	146
7.2730000000	151
7.3030000000	167
7.3330000000	162
7.3630000000	135
7.3930000000	168
7.4230000000	154
7.4530000000	141
7.4830000000	152
7.5130000000	156
7.5430000000	133
7.5730000000	139
7.6030000000	142
7.6330000000	143
7.6630000000	159
7.6930000000	157
7.7230000000	153
7.7530000000	148
7.7830000000	138
7.8130000000	150
7.8430000000	145
7.8730000000	129
7.9030000000	139
7.9330000000	149
7.9630000000	151
7.9930000000	132
8.0230000000	116
8.0530000000	154
8.0830000000	136
8.1130000000	150
8.1430000000	143
8.1730000000	119
8.2030000000	126
8.2330000000	166
8.2630000000	141
8.2930000000	144
8.3230000000	153
8.3530000000	156
8.3830000000	140
8.4130000000	140
8.4430000000	139
8.4730000000	123
8.5030000000	145
8.5330000000	169
8.5630000000	146
8.5930000000	149
8.6230000000	142
8.6530000000	145
8.6830000000	136
8.7130000000	131
8.7430000000	169
8.7730000000	158
8.8030000000	155
8.8330000000	173
8.8630000000	155
8.8930000000	140
8.9230000000	141
8.9530000000	138
8.9830000000	147
9.0130000000	162
9.0430000000	128
9.0730000000	173
9.1030000000	137
9.1330000000	146
9.1630000000	153
9.1930000000	163
9.2230000000	141
9.2530000000	158
9.2830000000	140
9.3130000000	128
9.3430000000	153
9.3730000000	152
9.4030000000	135
9.4330000000	123
9.4630000000	127
9.4930000000	150
9.5230000000	141
9.5530000000	137
9.5830000000	157
9.6130000000	139
9.6430000000	140
9.6730000000	139
9.7030000000	148
9.7330000000	164
9.7630000000	151
9.7930000000	151
9.8230000000	150
9.8530000000	155
9.8830000000	157
9.9130000000	147
9.9430000000	142
9.9730000000	129
10.0030000000	153
10.0330000000	148
10.0630000000	158
10.0930000000	147
10.1230000000	149
10.1530000000	131
10.1830000000	153
10.2130000000	150
10.2430000000	154
10.2730000000	175
10.3030000000	156
10.3330000000	166
10.3630000000	165
10.3930000000	153
10.4230000000	156
10.4530000000	146
10.4830000000	130
10.5130000000	161
10.5430000000	129
10.5730000000	164
10.6030000000	152
10.6330000000	138
10.6630000000	155
10.6930000000	143
10.7230000000	139
10.7530000000	162
10.7830000000	155
10.8130000000	175
10.8430000000	163
10.8730000000	133
10.9030000000	146
10.9330000000	147
10.9630000000	141
10.9930000000	157
11.0230000000	135
11.0530000000	143
11.0830000000	169
11.1130000000	150
11.1430000000	163
11.1730000000	140
11.2030000000	150
11.2330000000	146
11.2630000000	144
11.2930000000	161
11.3230000000	173
11.3530000000	131
11.3830000000	129
11.4130000000	124
11.4430000000	145
11.4730000000	152
11.5030000000	157
11.5330000000	167
11.5630000000	154
11.5930000000	133
11.6230000000	150
11.6530000000	150
11.6830000000	130
11.7130000000	152
11.7430000000	141
11.7730000000	144
11.8030000000	147
11.8330000000	144
11.8630000000	144
11.8930000000	150
11.9230000000	155
11.9530000000	161
11.9830000000	153
12.0130000000	149
12.0430000000	139
12.0730000000	146
12.1030000000	123
12.1330000000	167
12.1630000000	152
12.1930000000	125
12.2230000000	167
12.2530000000	154
12.2830000000	136
12.3130000000	150
12.3430000000	155
12.3730000000	156
12.4030000000	122
12.4330000000	136
12.4630000000	131
12.4930000000	137
12.5230000000	142
12.5530000000	157
12.5830000000	148
12.6130000000	145
12.6430000000	150
12.6730000000	128
12.7030000000	141
12.7330000000	146
12.7630000000	143
12.7930000000	154
12.8230000000	153
12.8530000000	160
12.8830000000	154
12.9130000000	144
12.9430000000	147
12.9730000000	137
13.0030000000	128
13.0330000000	129
13.0630000000	140
13.0930000000	138
13.1230000000	137
13.1530000000	161
13.1830000000	146
13.2130000000	157
13.2430000000	144
13.2730000000	140
13.3030000000	155
13.3330000000	138
13.3630000000	130
13.3930000000	125
13.4230000000	162
13.4530000000	145
13.4830000000	136
13.5130000000	141
13.5430000000	151
13.5730000000	157
13.6030000000	144
13.6330000000	140
13.6630000000	157
13.6930000000	127
13.7230000000	130
13.7530000000	134
13.7830000000	154
13.8130000000	140
13.8430000000	130
13.8730000000	153
13.9030000000	170
13.9330000000	152
13.9630000000	142
13.9930000000	139
14.0230000000	125
14.0530000000	141
14.0830000000	168
14.1130000000	143
14.1430000000	124
14.1730000000	137
14.2030000000	153
14.2330000000	134
14.2630000000	141
14.2930000000	149
14.3230000000	153
14.3530000000	138
14.3830000000	126
14.4130000000	151
14.4430000000	146
14.4730000000	165
14.5030000000	152
14.5330000000	150
14.5630000000	144
14.5930000000	132
14.6230000000	121
14.6530000000	132
14.6830000000	133
14.7130000000	137
14.7430000000	158
14.7730000000	168
14.8030000000	168
14.8330000000	134
14.8630000000	133
14.8930000000	159
14.9230000000	178
14.9530000000	175
14.9830000000	149
15.0130000000	163
15.0430000000	169
15.0730000000	145
15.1030000000	145
15.1330000000	167
15.1630000000	134
15.1930000000	140
15.2230000000	153
15.2530000000	133
15.2830000000	146
15.3130000000	150
15.3430000000	130
15.3730000000	156
15.4030000000	153
15.4330000000	151
15.4630000000	132
15.4930000000	148
15.5230000000	135
15.5530000000	152
15.5830000000	146
15.6130000000	130
15.6430000000	148
15.6730000000	150
15.7030000000	158
15.7330000000	148
15.7630000000	149
15.7930000000	163
15.8230000000	135
15.8530000000	158
15.8830000000	177
15.9130000000	154
15.9430000000	123
15.9730000000	160
16.0030000000	156
16.0330000000	117
16.0630000000	145
16.0930000000	143
16.1230000000	159
16.1530000000	146
16.1830000000	141
16.2130000000	147
16.2430000000	151
16.2730000000	128
16.3030000000	125
16.3330000000	138
16.3630000000	143
16.3930000000	133
16.4230000000	132
16.4530000000	175
16.4830000000	156
16.5130000000	137
16.5430000000	140
16.5730000000	143
16.6030000000	144
16.6330000000	138
16.6630000000	141
16.6930000000	123
16.7230000000	140
16.7530000000	156
16.7830000000	163
16.8130000000	147
16.8430000000	139
16.8730000000	136
16.9030000000	142
16.9330000000	137
16.9630000000	146
16.9930000000	145
17.0230000000	157
17.0530000000	149
17.0830000000	148
17.1130000000	162
17.1430000000	143
17.1730000000	133
17.2030000000	131
17.2330000000	157
17.2630000000	154
17.2930000000	142
17.3230000000	134
17.3530000000	132
17.3830000000	123
17.4130000000	155
17.4430000000	149
17.4730000000	142
17.5030000000	158
17.5330000000	149
17.5630000000	140
17.5930000000	152
17.6230000000	155
17.6530000000	146
17.6830000000	147
17.7130000000	170
17.7430000000	151
17.7730000000	145
17.8030000000	134
17.8330000000	132
17.8630000000	150
17.8930000000	152
17.9230000000	155
17.9530000000	145
17.9830000000	134
18.0130000000	142
18.0430000000	158
18.0730000000	154
18.1030000000	134
18.1330000000	129
18.1630000000	151
18.1930000000	145
18.2230000000	162
18.2530000000	141
18.2830000000	133
18.3130000000	135
18.3430000000	165
18.3730000000	144
18.4030000000	158
18.4330000000	158
18.4630000000	154
18.4930000000	125
18.5230000000	130
18.5530000000	166
18.5830000000	148
18.6130000000	153
18.6430000000	160
18.6730000000	139
18.7030000000	133
18.7330000000	146
18.7630000000	180
18.7930000000	169
18.8230000000	136
18.8530000000	132
18.8830000000	169
18.9130000000	143
18.9430000000	154
18.9730000000	148
19.0030000000	156
19.0330000000	147
19.0630000000	150
19.0930000000	161
19.1230000000	140
19.1530000000	138
19.1830000000	141
19.2130000000	146
19.2430000000	156
19.2730000000	163
19.3030000000	155
19.3330000000	170
19.3630000000	137
19.3930000000	164
19.4230000000	176
19.4530000000	210
19.4830000000	225
19.5130000000	259
19.5430000000	327
19.5730000000	382
19.6030000000	396
19.6330000000	373
19.6630000000	282
19.6930000000	216
19.7230000000	199
19.7530000000	190
19.7830000000	163
19.8130000000	169
19.8430000000	167
19.8730000000	172
19.9030000000	158
19.9330000000	134
19.9630000000	140
19.9930000000	155
20.0230000000	152
20.0530000000	148
20.0830000000	144
20.1130000000	170
20.1430000000	153
20.1730000000	159
20.2030000000	160
20.2330000000	151
20.2630000000	173
20.2930000000	176
20.3230000000	162
20.3530000000	164
20.3830000000	147
20.4130000000	164
20.4430000000	168
20.4730000000	148
20.5030000000	152
20.5330000000	160
20.5630000000	134
20.5930000000	128
20.6230000000	134
20.6530000000	145
20.6830000000	120
20.7130000000	178
20.7430000000	149
20.7730000000	158
20.8030000000	152
20.8330000000	145
20.8630000000	151
20.8930000000	144
20.9230000000	157
20.9530000000	156
20.9830000000	177
21.0130000000	152
21.0430000000	150
21.0730000000	151
21.1030000000	152
21.1330000000	178
21.1630000000	159
21.1930000000	174
21.2230000000	144
21.2530000000	150
21.2830000000	147
21.3130000000	166
21.3430000000	178
21.3730000000	165
21.4030000000	159
21.4330000000	146
21.4630000000	153
21.4930000000	157
21.5230000000	157
21.5530000000	161
21.5830000000	173
21.6130000000	167
21.6430000000	161
21.6730000000	167
21.7030000000	166
21.7330000000	154
21.7630000000	149
21.7930000000	159
21.8230000000	169
21.8530000000	146
21.8830000000	152
21.9130000000	166
21.9430000000	154
21.9730000000	149
22.0030000000	151
22.0330000000	157
22.0630000000	155
22.0930000000	163
22.1230000000	170
22.1530000000	186
22.1830000000	172
22.2130000000	158
22.2430000000	134
22.2730000000	149
22.3030000000	174
22.3330000000	166
22.3630000000	186
22.3930000000	184
22.4230000000	173
22.4530000000	183
22.4830000000	161
22.5130000000	164
22.5430000000	175
22.5730000000	175
22.6030000000	190
22.6330000000	197
22.6630000000	208
22.6930000000	231
22.7230000000	248
22.7530000000	237
22.7830000000	250
22.8130000000	223
22.8430000000	181
22.8730000000	178
22.9030000000	171
22.9330000000	155
22.9630000000	157
22.9930000000	170
23.0230000000	167
23.0530000000	155
23.0830000000	160
23.1130000000	166
23.1430000000	165
23.1730000000	150
23.2030000000	162
23.2330000000	169
23.2630000000	180
23.2930000000	170
23.3230000000	187
23.3530000000	175
23.3830000000	157
23.4130000000	166
23.4430000000	182
23.4730000000	162
23.5030000000	173
23.5330000000	173
23.5630000000	164
23.5930000000	152
23.6230000000	164
23.6530000000	160
23.6830000000	180
23.7130000000	177
23.7430000000	177
23.7730000000	165
23.8030000000	177
23.8330000000	158
23.8630000000	160
23.8930000000	183
23.9230000000	194
23.9530000000	164
23.9830000000	181
24.0130000000	189
24.0430000000	188
24.0730000000	163
24.1030000000	167
24.1330000000	170
24.1630000000	153
24.1930000000	180
24.2230000000	167
24.2530000000	159
24.2830000000	148
24.3130000000	159
24.3430000000	170
24.3730000000	198
24.4030000000	190
24.4330000000	148
24.4630000000	158
24.4930000000	186
24.5230000000	192
24.5530000000	181
24.5830000000	166
24.6130000000	174
24.6430000000	174
24.6730000000	159
24.7030000000	183
24.7330000000	178
24.7630000000	184
24.7930000000	199
24.8230000000	168
24.8530000000	153
24.8830000000	179
24.9130000000	145
24.9430000000	165
24.9730000000	171
25.0030000000	153
25.0330000000	176
25.0630000000	136
25.0930000000	183
25.1230000000	164
25.1530000000	173
25.1830000000	191
25.2130000000	151
25.2430000000	169
25.2730000000	162
25.3030000000	176
25.3330000000	137
25.3630000000	183
25.3930000000	156
25.4230000000	155
25.4530000000	180
25.4830000000	144
25.5130000000	166
25.5430000000	159
25.5730000000	195
25.6030000000	184
25.6330000000	199
25.6630000000	200
25.6930000000	164
25.7230000000	176
25.7530000000	158
25.7830000000	168
25.8130000000	158
25.8430000000	165
25.8730000000	171
25.9030000000	161
25.9330000000	154
25.9630000000	167
25.9930000000	193
26.0230000000	187
26.0530000000	179
26.0830000000	173
26.1130000000	162
26.1430000000	163
26.1730000000	166
26.2030000000	210
26.2330000000	221
26.2630000000	271
26.2930000000	318
26.3230000000	395
26.3530000000	515
26.3830000000	669
26.4130000000	803
26.4430000000	1009
26.4730000000	999
26.5030000000	797
26.5330000000	612
26.5630000000	431
26.5930000000	329
26.6230000000	266
26.6530000000	199
26.6830000000	186
26.7130000000	190
26.7430000000	176
26.7730000000	183
26.8030000000	198
26.8330000000	174
26.8630000000	153
26.8930000000	150
26.9230000000	163
26.9530000000	159
26.9830000000	135
27.0130000000	155
27.0430000000	160
27.0730000000	149
27.1030000000	147
27.1330000000	136
27.1630000000	144
27.1930000000	144
27.2230000000	137
27.2530000000	150
27.2830000000	156
27.3130000000	159
27.3430000000	119
27.3730000000	145
27.4030000000	159
27.4330000000	162
27.4630000000	165
27.4930000000	150
27.5230000000	130
27.5530000000	170
27.5830000000	165
27.6130000000	173
27.6430000000	149
27.6730000000	153
27.7030000000	160
27.7330000000	142
27.7630000000	134
27.7930000000	136
27.8230000000	147
27.8530000000	148
27.8830000000	158
27.9130000000	161
27.9430000000	146
27.9730000000	144
28.0030000000	176
28.0330000000	148
28.0630000000	139
28.0930000000	132
28.1230000000	148
28.1530000000	170
28.1830000000	160
28.2130000000	127
28.2430000000	162
28.2730000000	150
28.3030000000	145
28.3330000000	165
28.3630000000	143
28.3930000000	134
28.4230000000	137
28.4530000000	152
28.4830000000	145
28.5130000000	132
28.5430000000	141
28.5730000000	144
28.6030000000	132
28.6330000000	155
28.6630000000	159
28.6930000000	141
28.7230000000	153
28.7530000000	165
28.7830000000	174
28.8130000000	168
28.8430000000	168
28.8730000000	138
28.9030000000	150
28.9330000000	150
28.9630000000	116
28.9930000000	131
29.0230000000	172
29.0530000000	147
29.0830000000	149
29.1130000000	119
29.1430000000	141
29.1730000000	136
29.2030000000	138
29.2330000000	150
29.2630000000	122
29.2930000000	132
29.3230000000	133
29.3530000000	131
29.3830000000	135
29.4130000000	121
29.4430000000	133
29.4730000000	150
29.5030000000	132
29.5330000000	123
29.5630000000	134
29.5930000000	129
29.6230000000	135
29.6530000000	133
29.6830000000	138
29.7130000000	143
29.7430000000	114
29.7730000000	126
29.8030000000	139
29.8330000000	126
29.8630000000	103
29.8930000000	159
29.9230000000	114
29.9530000000	149
29.9830000000	165
30.0130000000	150
30.0430000000	160
30.0730000000	134
30.1030000000	156
30.1330000000	167
30.1630000000	167
30.1930000000	192
30.2230000000	185
30.2530000000	251
30.2830000000	316
30.3130000000	477
30.3430000000	686
30.3730000000	999
30.4030000000	1499
30.4330000000	2110
30.4630000000	2688
30.4930000000	2773
30.5230000000	2428
30.5530000000	1800
30.5830000000	1219
30.6130000000	779
30.6430000000	541
30.6730000000	344
30.7030000000	235
30.7330000000	209
30.7630000000	181
30.7930000000	177
30.8230000000	144
30.8530000000	173
30.8830000000	164
30.9130000000	146
30.9430000000	125
30.9730000000	142
31.0030000000	159
31.0330000000	141
31.0630000000	120
31.0930000000	146
31.1230000000	129
31.1530000000	140
31.1830000000	147
31.2130000000	135
31.2430000000	129
31.2730000000	137
31.3030000000	109
31.3330000000	142
31.3630000000	125
31.3930000000	142
31.4230000000	144
31.4530000000	129
31.4830000000	151
31.5130000000	132
31.5430000000	174
31.5730000000	132
31.6030000000	139
31.6330000000	145
31.6630000000	153
31.6930000000	187
31.7230000000	251
31.7530000000	324
31.7830000000	466
31.8130000000	668
31.8430000000	1000
31.8730000000	1389
31.9030000000	1608
31.9330000000	1648
31.9630000000	1403
31.9930000000	1077
32.0230000000	886
32.0530000000	703
32.0830000000	706
32.1130000000	803
32.1430000000	960
32.1730000000	1097
32.2030000000	1122
32.2330000000	1029
32.2630000000	811
32.2930000000	652
32.3230000000	462
32.3530000000	331
32.3830000000	213
32.4130000000	163
32.4430000000	159
32.4730000000	152
32.5030000000	135
32.5330000000	140
32.5630000000	131
32.5930000000	104
32.6230000000	109
32.6530000000	133
32.6830000000	113
32.7130000000	122
32.7430000000	123
32.7730000000	118
32.8030000000	117
32.8330000000	107
32.8630000000	113
32.8930000000	105
32.9230000000	100
32.9530000000	95
32.9830000000	97
33.0130000000	105
33.0430000000	130
33.0730000000	126
33.1030000000	109
33.1330000000	102
33.1630000000	106
33.1930000000	122
33.2230000000	111
33.2530000000	117
33.2830000000	125
33.3130000000	139
33.3430000000	139
33.3730000000	124
33.4030000000	113
33.4330000000	124
33.4630000000	120
33.4930000000	111
33.5230000000	98
33.5530000000	97
33.5830000000	102
33.6130000000	116
33.6430000000	104
33.6730000000	101
33.7030000000	98
33.7330000000	90
33.7630000000	88
33.7930000000	96
33.8230000000	89
33.8530000000	87
33.8830000000	93
33.9130000000	101
33.9430000000	91
33.9730000000	88
34.0030000000	101
34.0330000000	93
34.0630000000	107
34.0930000000	104
34.1230000000	85
34.1530000000	92
34.1830000000	124
34.2130000000	105
34.2430000000	105
34.2730000000	99
34.3030000000	89
34.3330000000	97
34.3630000000	97
34.3930000000	98
34.4230000000	93
34.4530000000	95
34.4830000000	97
34.5130000000	89
34.5430000000	97
34.5730000000	97
34.6030000000	102
34.6330000000	104
34.6630000000	89
34.6930000000	88
34.7230000000	83
34.7530000000	82
34.7830000000	93
34.8130000000	102
34.8430000000	89
34.8730000000	94
34.9030000000	94
34.9330000000	96
34.9630000000	98
34.9930000000	88
35.0230000000	96
35.0530000000	101
35.0830000000	107
35.1130000000	98
35.1430000000	112
35.1730000000	105
35.2030000000	108
35.2330000000	125
35.2630000000	131
35.2930000000	145
35.3230000000	177
35.3530000000	211
35.3830000000	260
35.4130000000	239
35.4430000000	243
35.4730000000	211
35.5030000000	204
35.5330000000	161
35.5630000000	144
35.5930000000	137
35.6230000000	121
35.6530000000	110
35.6830000000	83
35.7130000000	103
35.7430000000	103
35.7730000000	89
35.8030000000	93
35.8330000000	86
35.8630000000	92
35.8930000000	94
35.9230000000	102
35.9530000000	90
35.9830000000	101
36.0130000000	98
36.0430000000	102
36.0730000000	98
36.1030000000	101
36.1330000000	99
36.1630000000	88
36.1930000000	95
36.2230000000	97
36.2530000000	93
36.2830000000	90
36.3130000000	97
36.3430000000	106
36.3730000000	97
36.4030000000	107
36.4330000000	98
36.4630000000	129
36.4930000000	132
36.5230000000	135
36.5530000000	196
36.5830000000	253
36.6130000000	293
36.6430000000	386
36.6730000000	457
36.7030000000	449
36.7330000000	390
36.7630000000	337
36.7930000000	249
36.8230000000	163
36.8530000000	139
36.8830000000	116
36.9130000000	98
36.9430000000	102
36.9730000000	92
37.0030000000	91
37.0330000000	106
37.0630000000	95
37.0930000000	91
37.1230000000	88
37.1530000000	88
37.1830000000	88
37.2130000000	94
37.2430000000	90
37.2730000000	82
37.3030000000	87
37.3330000000	115
37.3630000000	86
37.3930000000	79
37.4230000000	84
37.4530000000	87
37.4830000000	69
37.5130000000	69
37.5430000000	97
37.5730000000	101
37.6030000000	81
37.6330000000	91
37.6630000000	89
37.6930000000	78
37.7230000000	90
37.7530000000	99
37.7830000000	88
37.8130000000	89
37.8430000000	89
37.8730000000	91
37.9030000000	99
37.9330000000	97
37.9630000000	95
37.9930000000	88
38.0230000000	84
38.0530000000	76
38.0830000000	92
38.1130000000	96
38.1430000000	86
38.1730000000	88
38.2030000000	96
38.2330000000	99
38.2630000000	89
38.2930000000	82
38.3230000000	77
38.3530000000	83
38.3830000000	87
38.4130000000	78
38.4430000000	80
38.4730000000	82
38.5030000000	79
38.5330000000	81
38.5630000000	85
38.5930000000	86
38.6230000000	90
38.6530000000	91
38.6830000000	93
38.7130000000	86
38.7430000000	87
38.7730000000	82
38.8030000000	73
38.8330000000	87
38.8630000000	88
38.8930000000	95
38.9230000000	97
38.9530000000	88
38.9830000000	89
39.0130000000	84
39.0430000000	89
39.0730000000	85
39.1030000000	92
39.1330000000	83
39.1630000000	93
39.1930000000	102
39.2230000000	81
39.2530000000	85
39.2830000000	91
39.3130000000	81
39.3430000000	91
39.3730000000	97
39.4030000000	97
39.4330000000	94
39.4630000000	103
39.4930000000	95
39.5230000000	108
39.5530000000	133
39.5830000000	143
39.6130000000	205
39.6430000000	262
39.6730000000	340
39.7030000000	512
39.7330000000	753
39.7630000000	975
39.7930000000	1211
39.8230000000	1212
39.8530000000	1104
39.8830000000	842
39.9130000000	621
39.9430000000	431
39.9730000000	278
40.0030000000	194
40.0330000000	145
40.0630000000	121
40.0930000000	119
40.1230000000	86
40.1530000000	89
40.1830000000	89
40.2130000000	86
40.2430000000	87
40.2730000000	86
40.3030000000	93
40.3330000000	95
40.3630000000	96
40.3930000000	80
40.4230000000	89
40.4530000000	95
40.4830000000	90
40.5130000000	71
40.5430000000	88
40.5730000000	94
40.6030000000	81
40.6330000000	84
40.6630000000	86
40.6930000000	101
40.7230000000	94
40.7530000000	89
40.7830000000	96
40.8130000000	93
40.8430000000	82
40.8730000000	81
40.9030000000	107
40.9330000000	81
40.9630000000	67
40.9930000000	91
41.0230000000	92
41.0530000000	86
41.0830000000	100
41.1130000000	81
41.1430000000	75
41.1730000000	75
41.2030000000	99
41.2330000000	97
41.2630000000	97
41.2930000000	92
41.3230000000	75
41.3530000000	93
41.3830000000	91
41.4130000000	70
41.4430000000	101
41.4730000000	81
41.5030000000	76
41.5330000000	96
41.5630000000	80
41.5930000000	71
41.6230000000	87
41.6530000000	89
41.6830000000	70
41.7130000000	72
41.7430000000	86
41.7730000000	73
41.8030000000	70
41.8330000000	81
41.8630000000	61
41.8930000000	79
41.9230000000	73
41.9530000000	88
41.9830000000	85
42.0130000000	82
42.0430000000	86
42.0730000000	84
42.1030000000	87
42.1330000000	94
42.1630000000	77
42.1930000000	71
42.2230000000	75
42.2530000000	83
42.2830000000	80
42.3130000000	78
42.3430000000	85
42.3730000000	81
42.4030000000	79
42.4330000000	78
42.4630000000	75
42.4930000000	80
42.5230000000	75
42.5530000000	80
42.5830000000	85
42.6130000000	83
42.6430000000	77
42.6730000000	73
42.7030000000	77
42.7330000000	68
42.7630000000	70
42.7930000000	81
42.8230000000	89
42.8530000000	83
42.8830000000	80
42.9130000000	103
42.9430000000	91
42.9730000000	95
43.0030000000	107
43.0330000000	108
43.0630000000	115
43.0930000000	162
43.1230000000	225
43.1530000000	360
43.1830000000	494
43.2130000000	651
43.2430000000	978
43.2730000000	1258
43.3030000000	1351
43.3330000000	1259
43.3630000000	1068
43.3930000000	839
43.4230000000	592
43.4530000000	449
43.4830000000	345
43.5130000000	214
43.5430000000	157
43.5730000000	113
43.6030000000	96
43.6330000000	120
43.6630000000	86
43.6930000000	83
43.7230000000	101
43.7530000000	107
43.7830000000	116
43.8130000000	127
43.8430000000	116
43.8730000000	98
43.9030000000	90
43.9330000000	91
43.9630000000	73
43.9930000000	85
44.0230000000	86
44.0530000000	90
44.0830000000	85
44.1130000000	75
44.1430000000	72
44.1730000000	69
44.2030000000	72
44.2330000000	92
44.2630000000	83
44.2930000000	75
44.3230000000	82
44.3530000000	72
44.3830000000	71
44.4130000000	72
44.4430000000	71
44.4730000000	64
44.5030000000	68
44.5330000000	81
44.5630000000	75
44.5930000000	63
44.6230000000	59
44.6530000000	69
44.6830000000	75
44.7130000000	70
44.7430000000	58
44.7730000000	86
44.8030000000	97
44.8330000000	83
44.8630000000	84
44.8930000000	101
44.9230000000	115
44.9530000000	146
44.9830000000	168
45.0130000000	265
45.0430000000	395
45.0730000000	517
45.1030000000	644
45.1330000000	807
45.1630000000	886
45.1930000000	782
45.2230000000	653
45.2530000000	567
45.2830000000	401
45.3130000000	269
45.3430000000	201
45.3730000000	119
45.4030000000	102
45.4330000000	89
45.4630000000	82
45.4930000000	68
45.5230000000	77
45.5530000000	82
45.5830000000	76
45.6130000000	72
45.6430000000	86
45.6730000000	97
45.7030000000	75
45.7330000000	62
45.7630000000	66
45.7930000000	63
45.8230000000	75
45.8530000000	71
45.8830000000	74
45.9130000000	71
45.9430000000	84
45.9730000000	86
46.0030000000	105
46.0330000000	136
46.0630000000	166
46.0930000000	173
46.1230000000	201
46.1530000000	203
46.1830000000	170
46.2130000000	179
46.2430000000	151
46.2730000000	109
46.3030000000	85
46.3330000000	85
46.3630000000	97
46.3930000000	93
46.4230000000	94
46.4530000000	102
46.4830000000	107
46.5130000000	128
46.5430000000	100
46.5730000000	95
46.6030000000	107
46.6330000000	91
46.6630000000	85
46.6930000000	66
46.7230000000	68
46.7530000000	67
46.7830000000	64
46.8130000000	65
46.8430000000	72
46.8730000000	62
46.9030000000	83
46.9330000000	118
46.9630000000	127
46.9930000000	169
47.0230000000	201
47.0530000000	251
47.0830000000	237
47.1130000000	229
47.1430000000	223
47.1730000000	213
47.2030000000	171
47.2330000000	108
47.2630000000	94
47.2930000000	64
47.3230000000	64
47.3530000000	58
47.3830000000	78
47.4130000000	52
47.4430000000	79
47.4730000000	74
47.5030000000	90
47.5330000000	98
47.5630000000	73
47.5930000000	90
47.6230000000	75
47.6530000000	96
47.6830000000	85
47.7130000000	81
47.7430000000	73
47.7730000000	57
47.8030000000	62
47.8330000000	52
47.8630000000	60
47.8930000000	72
47.9230000000	60
47.9530000000	63
47.9830000000	54
48.0130000000	52
48.0430000000	69
48.0730000000	53
48.1030000000	55
48.1330000000	66
48.1630000000	58
48.1930000000	53
48.2230000000	51
48.2530000000	61
48.2830000000	50
48.3130000000	61
48.3430000000	49
48.3730000000	62
48.4030000000	66
48.4330000000	60
48.4630000000	52
48.4930000000	56
48.5230000000	58
48.5530000000	62
48.5830000000	46
48.6130000000	53
48.6430000000	55
48.6730000000	52
48.7030000000	57
48.7330000000	55
48.7630000000	55
48.7930000000	57
48.8230000000	63
48.8530000000	63
48.8830000000	56
48.9130000000	55
48.9430000000	48
48.9730000000	47
49.0030000000	57
49.0330000000	56
49.0630000000	45
49.0930000000	46
49.1230000000	54
49.1530000000	51
49.1830000000	56
49.2130000000	60
49.2430000000	63
49.2730000000	65
49.3030000000	51
49.3330000000	48
49.3630000000	59
49.3930000000	47
49.4230000000	54
49.4530000000	50
49.4830000000	51
49.5130000000	46
49.5430000000	49
49.5730000000	47
49.6030000000	47
49.6330000000	62
49.6630000000	58
49.6930000000	49
49.7230000000	58
49.7530000000	51
49.7830000000	62
49.8130000000	65
49.8430000000	46
49.8730000000	55
49.9030000000	59
49.9330000000	65
49.9630000000	61
49.9930000000	56
50.0230000000	46
50.0530000000	58
50.0830000000	56
50.1130000000	60
50.1430000000	46
50.1730000000	63
50.2030000000	61
50.2330000000	57
50.2630000000	50
50.2930000000	60
50.3230000000	53
50.3530000000	60
50.3830000000	73
50.4130000000	63
50.4430000000	60
50.4730000000	67
50.5030000000	59
50.5330000000	70
50.5630000000	80
50.5930000000	91
50.6230000000	103
50.6530000000	95
50.6830000000	99
50.7130000000	85
50.7430000000	66
50.7730000000	67
50.8030000000	71
50.8330000000	63
50.8630000000	64
50.8930000000	53
50.9230000000	55
50.9530000000	62
50.9830000000	52
51.0130000000	57
51.0430000000	57
51.0730000000	49
51.1030000000	60
51.1330000000	47
51.1630000000	44
51.1930000000	47
51.2230000000	62
51.2530000000	67
51.2830000000	58
51.3130000000	55
51.3430000000	39
51.3730000000	42
51.4030000000	52
51.4330000000	49
51.4630000000	47
51.4930000000	58
51.5230000000	53
51.5530000000	52
51.5830000000	56
51.6130000000	48
51.6430000000	46
51.6730000000	56
51.7030000000	56
51.7330000000	51
51.7630000000	48
51.7930000000	63
51.8230000000	54
51.8530000000	40
51.8830000000	54
51.9130000000	56
51.9430000000	48
51.9730000000	52
52.0030000000	52
52.0330000000	65
52.0630000000	38
52.0930000000	51
52.1230000000	68
52.1530000000	79
52.1830000000	73
52.2130000000	75
52.2430000000	75
52.2730000000	94
52.3030000000	87
52.3330000000	70
52.3630000000	63
52.3930000000	63
52.4230000000	65
52.4530000000	60
52.4830000000	59
52.5130000000	58
52.5430000000	41
52.5730000000	57
52.6030000000	56
52.6330000000	39
52.6630000000	65
52.6930000000	41
52.7230000000	46
52.7530000000	40
52.7830000000	53
52.8130000000	46
52.8430000000	52
52.8730000000	53
52.9030000000	49
52.9330000000	53
52.9630000000	54
52.9930000000	51
53.0230000000	58
53.0530000000	55
53.0830000000	49
53.1130000000	48
53.1430000000	44
53.1730000000	48
53.2030000000	50
53.2330000000	57
53.2630000000	58
53.2930000000	58
53.3230000000	44
53.3530000000	42
53.3830000000	41
53.4130000000	55
53.4430000000	55
53.4730000000	38
53.5030000000	61
53.5330000000	50
53.5630000000	54
53.5930000000	60
53.6230000000	58
53.6530000000	41
53.6830000000	44
53.7130000000	53
53.7430000000	53
53.7730000000	52
53.8030000000	53
53.8330000000	68
53.8630000000	64
53.8930000000	83
53.9230000000	91
53.9530000000	99
53.9830000000	105
54.0130000000	115
54.0430000000	102
54.0730000000	106
54.1030000000	82
54.1330000000	81
54.1630000000	80
54.1930000000	63
54.2230000000	48
54.2530000000	46
54.2830000000	51
54.3130000000	54
54.3430000000	51
54.3730000000	43
54.4030000000	47
54.4330000000	45
54.4630000000	57
54.4930000000	50
54.5230000000	51
54.5530000000	52
54.5830000000	47
54.6130000000	47
54.6430000000	54
54.6730000000	55
54.7030000000	63
54.7330000000	44
54.7630000000	57
54.7930000000	43
54.8230000000	51
54.8530000000	48
54.8830000000	46
54.9130000000	50
54.9430000000	62
54.9730000000	48
55.0030000000	61
55.0330000000	63
55.0630000000	78
55.0930000000	90
55.1230000000	115
55.1530000000	127
55.1830000000	116
55.2130000000	93
55.2430000000	117
55.2730000000	94
55.3030000000	85
55.3330000000	78
55.3630000000	79
55.3930000000	67
55.4230000000	84
55.4530000000	124
55.4830000000	115
55.5130000000	128
55.5430000000	113
55.5730000000	136
55.6030000000	121
55.6330000000	98
55.6630000000	82
55.6930000000	77
55.7230000000	66
55.7530000000	78
55.7830000000	72
55.8130000000	43
55.8430000000	69
55.8730000000	49
55.9030000000	48
55.9330000000	46
55.9630000000	47
55.9930000000	60
56.0230000000	52
56.0530000000	48
56.0830000000	50
56.1130000000	53
56.1430000000	56
56.1730000000	48
56.2030000000	52
56.2330000000	44
56.2630000000	28
56.2930000000	35
56.3230000000	33
56.3530000000	51
56.3830000000	55
56.4130000000	38
56.4430000000	43
56.4730000000	47
56.5030000000	57
56.5330000000	51
56.5630000000	52
56.5930000000	43
56.6230000000	49
56.6530000000	49
56.6830000000	47
56.7130000000	42
56.7430000000	46
56.7730000000	50
56.8030000000	51
56.8330000000	45
56.8630000000	56
56.8930000000	47
56.9230000000	46
56.9530000000	46
56.9830000000	49
57.0130000000	41
57.0430000000	51
57.0730000000	54
57.1030000000	44
57.1330000000	40
57.1630000000	41
57.1930000000	42
57.2230000000	54
57.2530000000	60
57.2830000000	59
57.3130000000	52
57.3430000000	48
57.3730000000	48
57.4030000000	38
57.4330000000	50
57.4630000000	47
57.4930000000	42
57.5230000000	35
57.5530000000	49
57.5830000000	30
57.6130000000	35
57.6430000000	45
57.6730000000	47
57.7030000000	41
57.7330000000	47
57.7630000000	44
57.7930000000	46
57.8230000000	45
57.8530000000	43
57.8830000000	33
57.9130000000	38
57.9430000000	40
57.9730000000	60
58.0030000000	48
58.0330000000	44
58.0630000000	34
58.0930000000	44
58.1230000000	45
58.1530000000	42
58.1830000000	44
58.2130000000	46
58.2430000000	33
58.2730000000	48
58.3030000000	54
58.3330000000	46
58.3630000000	53
58.3930000000	44
58.4230000000	45
58.4530000000	48
58.4830000000	48
58.5130000000	55
58.5430000000	46
58.5730000000	48
58.6030000000	60
58.6330000000	33
58.6630000000	42
58.6930000000	38
58.7230000000	47
58.7530000000	43
58.7830000000	33
58.8130000000	37
58.8430000000	60
58.8730000000	46
58.9030000000	38
58.9330000000	38
58.9630000000	41
58.9930000000	38
59.0230000000	51
59.0530000000	34
59.0830000000	40
59.1130000000	41
59.1430000000	35
59.1730000000	37
59.2030000000	35
59.2330000000	42
59.2630000000	48
59.2930000000	46
59.3230000000	61
59.3530000000	47
59.3830000000	45
59.4130000000	42
59.4430000000	47
59.4730000000	44
59.5030000000	47
59.5330000000	44
59.5630000000	43
59.5930000000	51
59.6230000000	44
59.6530000000	51
59.6830000000	49
59.7130000000	53
59.7430000000	35
59.7730000000	48
59.8030000000	45
59.8330000000	55
59.8630000000	45
59.8930000000	47
59.9230000000	54
59.9530000000	45
59.9830000000	42
60.0130000000	41
60.0430000000	49
60.0730000000	50
60.1030000000	49
60.1330000000	38
60.1630000000	57
60.1930000000	37
60.2230000000	58
60.2530000000	73
60.2830000000	86
60.3130000000	88
60.3430000000	108
60.3730000000	133
60.4030000000	143
60.4330000000	124
60.4630000000	110
60.4930000000	107
60.5230000000	100
60.5530000000	88
60.5830000000	77
60.6130000000	71
60.6430000000	65
60.6730000000	57
60.7030000000	53
60.7330000000	43
60.7630000000	46
60.7930000000	38
60.8230000000	41
60.8530000000	46
60.8830000000	33
60.9130000000	37
60.9430000000	45
60.9730000000	41
61.0030000000	49
61.0330000000	33
61.0630000000	40
61.0930000000	50
61.1230000000	41
61.1530000000	60
61.1830000000	44
61.2130000000	55
61.2430000000	66
61.2730000000	60
61.3030000000	46
61.3330000000	64
61.3630000000	57
61.3930000000	73
61.4230000000	50
61.4530000000	69
61.4830000000	77
61.5130000000	110
61.5430000000	96
61.5730000000	99
61.6030000000	103
61.6330000000	116
61.6630000000	112
61.6930000000	88
61.7230000000	99
61.7530000000	75
61.7830000000	86
61.8130000000	76
61.8430000000	49
61.8730000000	53
61.9030000000	52
61.9330000000	50
61.9630000000	50
61.9930000000	44
62.0230000000	50
62.0530000000	44
62.0830000000	35
62.1130000000	48
62.1430000000	32
62.1730000000	35
62.2030000000	40
62.2330000000	40
62.2630000000	35
62.2930000000	35
62.3230000000	49
62.3530000000	53
62.3830000000	49
62.4130000000	32
62.4430000000	45
62.4730000000	39
62.5030000000	47
62.5330000000	54
62.5630000000	38
62.5930000000	36
62.6230000000	39
62.6530000000	46
62.6830000000	45
62.7130000000	45
62.7430000000	43
62.7730000000	34
62.8030000000	37
62.8330000000	38
62.8630000000	40
62.8930000000	44
62.9230000000	37
62.9530000000	34
62.9830000000	44
63.0130000000	42
63.0430000000	25
63.0730000000	47
63.1030000000	48
63.1330000000	45
63.1630000000	40
63.1930000000	36
63.2230000000	34
63.2530000000	41
63.2830000000	53
63.3130000000	48
63.3430000000	47
63.3730000000	50
63.4030000000	49
63.4330000000	48
63.4630000000	51
63.4930000000	68
63.5230000000	58
63.5530000000	46
63.5830000000	40
63.6130000000	55
63.6430000000	46
63.6730000000	39
63.7030000000	34
63.7330000000	34
63.7630000000	37
63.7930000000	46
63.8230000000	40
63.8530000000	39
63.8830000000	42
63.9130000000	46
63.9430000000	32
63.9730000000	35
64.0030000000	43
64.0330000000	31
64.0630000000	41
64.0930000000	39
64.1230000000	41
64.1530000000	39
64.1830000000	32
64.2130000000	34
64.2430000000	44
64.2730000000	39
64.3030000000	36
64.3330000000	37
64.3630000000	44
64.3930000000	34
64.4230000000	35
64.4530000000	42
64.4830000000	42
64.5130000000	37
64.5430000000	42
64.5730000000	40
64.6030000000	49
64.6330000000	42
64.6630000000	36
64.6930000000	45
64.7230000000	53
64.7530000000	43
64.7830000000	48
64.8130000000	53
64.8430000000	53
64.8730000000	45
64.9030000000	44
64.9330000000	41
64.9630000000	44
64.9930000000	46
65.0230000000	33
65.0530000000	48
65.0830000000	44
65.1130000000	35
65.1430000000	45
65.1730000000	44
65.2030000000	52
65.2330000000	38
65.2630000000	51
65.2930000000	42
65.3230000000	46
65.3530000000	29
65.3830000000	41
65.4130000000	37
65.4430000000	48
65.4730000000	43
65.5030000000	34
65.5330000000	54
65.5630000000	45
65.5930000000	38
65.6230000000	42
65.6530000000	44
65.6830000000	44
65.7130000000	39
65.7430000000	39
65.7730000000	47
65.8030000000	40
65.8330000000	38
65.8630000000	30
65.8930000000	41
65.9230000000	48
65.9530000000	40
65.9830000000	49
66.0130000000	50
66.0430000000	48
66.0730000000	39
66.1030000000	37
66.1330000000	54
66.1630000000	51
66.1930000000	54
66.2230000000	60
66.2530000000	64
66.2830000000	80
66.3130000000	105
66.3430000000	129
66.3730000000	157
66.4030000000	166
66.4330000000	161
66.4630000000	152
66.4930000000	125
66.5230000000	126
66.5530000000	135
66.5830000000	118
66.6130000000	96
66.6430000000	89
66.6730000000	69
66.7030000000	63
66.7330000000	54
66.7630000000	55
66.7930000000	58
66.8230000000	55
66.8530000000	50
66.8830000000	44
66.9130000000	49
66.9430000000	45
66.9730000000	42
67.0030000000	38
67.0330000000	35
67.0630000000	39
67.0930000000	45
67.1230000000	52
67.1530000000	37
67.1830000000	34
67.2130000000	48
67.2430000000	39
67.2730000000	42
67.3030000000	61
67.3330000000	45
67.3630000000	43
67.3930000000	44
67.4230000000	50
67.4530000000	43
67.4830000000	43
67.5130000000	33
67.5430000000	37
67.5730000000	29
67.6030000000	33
67.6330000000	48
67.6630000000	43
67.6930000000	34
67.7230000000	29
67.7530000000	35
67.7830000000	37
67.8130000000	36
67.8430000000	41
67.8730000000	42
67.9030000000	38
67.9330000000	45
67.9630000000	36
67.9930000000	25
68.0230000000	36
68.0530000000	50
68.0830000000	32
68.1130000000	48
68.1430000000	45
68.1730000000	37
68.2030000000	37
68.2330000000	33
68.2630000000	36
68.2930000000	39
68.3230000000	47
68.3530000000	41
68.3830000000	25
68.4130000000	35
68.4430000000	41
68.4730000000	48
68.5030000000	38
68.5330000000	41
68.5630000000	40
68.5930000000	35
68.6230000000	40
68.6530000000	45
68.6830000000	38
68.7130000000	46
68.7430000000	44
68.7730000000	41
68.8030000000	41
68.8330000000	29
68.8630000000	43
68.8930000000	29
68.9230000000	42
68.9530000000	51
68.9830000000	50
69.0130000000	51
69.0430000000	45
69.0730000000	34
69.1030000000	25
69.1330000000	41
69.1630000000	37
69.1930000000	35
69.2230000000	37
69.2530000000	43
69.2830000000	55
69.3130000000	36
69.3430000000	33
69.3730000000	53
69.4030000000	52
69.4330000000	46
69.4630000000	38
69.4930000000	36
69.5230000000	53
69.5530000000	46
69.5830000000	45
69.6130000000	48
69.6430000000	42
69.6730000000	39
69.7030000000	45
69.7330000000	40
69.7630000000	48
69.7930000000	52
69.8230000000	45
69.8530000000	50
69.8830000000	38
69.9130000000	22
69.9430000000	36
69.9730000000	48
70.0030000000	42
70.0330000000	42
70.0630000000	40
70.0930000000	50
70.1230000000	33
70.1530000000	41
70.1830000000	39
70.2130000000	43
70.2430000000	43
70.2730000000	48
70.3030000000	34
70.3330000000	38
70.3630000000	45
70.3930000000	37
70.4230000000	51
70.4530000000	34
70.4830000000	44
70.5130000000	37
70.5430000000	29
70.5730000000	42
70.6030000000	46
70.6330000000	35
70.6630000000	33
70.6930000000	46
70.7230000000	37
70.7530000000	41
70.7830000000	36
70.8130000000	52
70.8430000000	46
70.8730000000	35
70.9030000000	44
70.9330000000	42
70.9630000000	40
70.9930000000	51
71.0230000000	48
71.0530000000	38
71.0830000000	40
71.1130000000	43
71.1430000000	42
71.1730000000	29
71.2030000000	37
71.2330000000	46
71.2630000000	44
71.2930000000	50
71.3230000000	44
71.3530000000	36
71.3830000000	39
71.4130000000	40
71.4430000000	41
71.4730000000	41
71.5030000000	40
71.5330000000	41
71.5630000000	37
71.5930000000	49
71.6230000000	38
71.6530000000	43
71.6830000000	33
71.7130000000	43
71.7430000000	48
71.7730000000	40
71.8030000000	41
71.8330000000	42
71.8630000000	42
71.8930000000	48
71.9230000000	44
71.9530000000	42
71.9830000000	41
72.0130000000	46
72.0430000000	42
72.0730000000	43
72.1030000000	44
72.1330000000	59
72.1630000000	54
72.1930000000	43
72.2230000000	56
72.2530000000	52
72.2830000000	62
72.3130000000	57
72.3430000000	54
72.3730000000	57
72.4030000000	48
72.4330000000	61
72.4630000000	74
72.4930000000	90
72.5230000000	108
72.5530000000	104
72.5830000000	112
72.6130000000	109
72.6430000000	94
72.6730000000	81
72.7030000000	94
72.7330000000	98
72.7630000000	85
72.7930000000	88
72.8230000000	86
72.8530000000	78
72.8830000000	78
72.9130000000	87
72.9430000000	108
72.9730000000	134
73.0030000000	166
73.0330000000	158
73.0630000000	162
73.0930000000	141
73.1230000000	120
73.1530000000	122
73.1830000000	128
73.2130000000	100
73.2430000000	115
73.2730000000	101
73.3030000000	77
73.3330000000	59
73.3630000000	69
73.3930000000	61
73.4230000000	48
73.4530000000	50
73.4830000000	50
73.5130000000	48
73.5430000000	44
73.5730000000	42
73.6030000000	40
73.6330000000	43
73.6630000000	46
73.6930000000	48
73.7230000000	48
73.7530000000	45
73.7830000000	54
73.8130000000	40
73.8430000000	43
73.8730000000	41
73.9030000000	49
73.9330000000	41
73.9630000000	35
73.9930000000	45
74.0230000000	42
74.0530000000	45
74.0830000000	35
74.1130000000	42
74.1430000000	38
74.1730000000	33
74.2030000000	52
74.2330000000	41
74.2630000000	54
74.2930000000	47
74.3230000000	50
74.3530000000	34
74.3830000000	44
74.4130000000	45
74.4430000000	37
74.4730000000	33
74.5030000000	37
74.5330000000	39
74.5630000000	29
74.5930000000	37
74.6230000000	38
74.6530000000	39
74.6830000000	46
74.7130000000	42
74.7430000000	41
74.7730000000	53
74.8030000000	52
74.8330000000	60
74.8630000000	53
74.8930000000	57
74.9230000000	51
74.9530000000	50
74.9830000000	55
75.0130000000	45
75.0430000000	50
75.0730000000	49
75.1030000000	54
75.1330000000	47
75.1630000000	43
75.1930000000	46
75.2230000000	40
75.2530000000	37
75.2830000000	41
75.3130000000	45
75.3430000000	44
75.3730000000	49
75.4030000000	50
75.4330000000	46
75.4630000000	46
75.4930000000	40
75.5230000000	36
75.5530000000	46
75.5830000000	56
75.6130000000	45
75.6430000000	42
75.6730000000	43
75.7030000000	39
75.7330000000	33
75.7630000000	31
75.7930000000	48
75.8230000000	43
75.8530000000	37
75.8830000000	35
75.9130000000	43
75.9430000000	39
75.9730000000	44
76.0030000000	40
76.0330000000	44
76.0630000000	43
76.0930000000	38
76.1230000000	47
76.1530000000	54
76.1830000000	46
76.2130000000	45
76.2430000000	36
76.2730000000	42
76.3030000000	41
76.3330000000	29
76.3630000000	44
76.3930000000	45
76.4230000000	42
76.4530000000	38
76.4830000000	50
76.5130000000	36
76.5430000000	37
76.5730000000	33
76.6030000000	33
76.6330000000	56
76.6630000000	37
76.6930000000	40
76.7230000000	48
76.7530000000	41
76.7830000000	36
76.8130000000	44
76.8430000000	36
76.8730000000	41
76.9030000000	38
76.9330000000	31
76.9630000000	44
76.9930000000	29
77.0230000000	39
77.0530000000	37
77.0830000000	37
77.1130000000	36
77.1430000000	30
77.1730000000	33
77.2030000000	27
77.2330000000	44
77.2630000000	39
77.2930000000	45
77.3230000000	36
77.3530000000	40
77.3830000000	46
77.4130000000	44
77.4430000000	34
77.4730000000	41
77.5030000000	51
77.5330000000	51
77.5630000000	48
77.5930000000	61
77.6230000000	76
77.6530000000	68
77.6830000000	84
77.7130000000	74
77.7430000000	79
77.7730000000	63
77.8030000000	69
77.8330000000	66
77.8630000000	67
77.8930000000	61
77.9230000000	48
77.9530000000	49
77.9830000000	64
78.0130000000	65
78.0430000000	47
78.0730000000	52
78.1030000000	54
78.1330000000	44
78.1630000000	51
78.1930000000	47
78.2230000000	44
78.2530000000	45
78.2830000000	50
78.3130000000	43
78.3430000000	44
78.3730000000	46
78.4030000000	42
78.4330000000	44
78.4630000000	37
78.4930000000	38
78.5230000000	48
78.5530000000	48
78.5830000000	39
78.6130000000	43
78.6430000000	40
78.6730000000	51
78.7030000000	56
78.7330000000	52
78.7630000000	51
78.7930000000	55
78.8230000000	46
78.8530000000	52
78.8830000000	55
78.9130000000	41
78.9430000000	43
78.9730000000	48
79.0030000000	41
79.0330000000	39
79.0630000000	46
79.0930000000	50
79.1230000000	40
79.1530000000	39
79.1830000000	36
79.2130000000	43
79.2430000000	35
79.2730000000	35
79.3030000000	39
79.3330000000	40
79.3630000000	35
79.3930000000	38
79.4230000000	40
79.4530000000	43
79.4830000000	36
79.5130000000	34
79.5430000000	48
79.5730000000	28
79.6030000000	51
79.6330000000	36
79.6630000000	43
79.6930000000	43
79.7230000000	41
79.7530000000	40
79.7830000000	41
79.8130000000	29
79.8430000000	51
79.8730000000	47
79.9030000000	50
79.9330000000	48
79.9630000000	31
79.9930000000	40
80.0230000000	43
80.0530000000	54
80.0830000000	48
80.1130000000	44
80.1430000000	41
80.1730000000	42
80.2030000000	38
80.2330000000	41
80.2630000000	35
80.2930000000	36
80.3230000000	34
80.3530000000	35
80.3830000000	35
80.4130000000	36
80.4430000000	37
80.4730000000	43
80.5030000000	37
80.5330000000	36
80.5630000000	36
80.5930000000	41
80.6230000000	48
80.6530000000	45
80.6830000000	47
80.7130000000	41
80.7430000000	44
80.7730000000	47
80.8030000000	55
80.8330000000	56
80.8630000000	66
80.8930000000	55
80.9230000000	39
80.9530000000	41
80.9830000000	49
81.0130000000	54
81.0430000000	56
81.0730000000	48
81.1030000000	55
81.1330000000	58
81.1630000000	43
81.1930000000	51
81.2230000000	40
81.2530000000	40
81.2830000000	39
81.3130000000	52
81.3430000000	49
81.3730000000	44
81.4030000000	32
81.4330000000	37
81.4630000000	36
81.4930000000	45
81.5230000000	54
81.5530000000	41
81.5830000000	30
81.6130000000	41
81.6430000000	40
81.6730000000	40
81.7030000000	37
81.7330000000	32
81.7630000000	40
81.7930000000	37
81.8230000000	39
81.8530000000	33
81.8830000000	44
81.9130000000	42
81.9430000000	38
81.9730000000	34
82.0030000000	40
82.0330000000	37
82.0630000000	31
82.0930000000	48
82.1230000000	31
82.1530000000	31
82.1830000000	37
82.2130000000	44
82.2430000000	44
82.2730000000	39
82.3030000000	35
82.3330000000	32
82.3630000000	35
82.3930000000	36
82.4230000000	32
82.4530000000	38
82.4830000000	43
82.5130000000	35
82.5430000000	49
82.5730000000	47
82.6030000000	40
82.6330000000	35
82.6630000000	34
82.6930000000	41
82.7230000000	33
82.7530000000	33
82.7830000000	35
82.8130000000	37
82.8430000000	38
82.8730000000	47
82.9030000000	52
82.9330000000	38
82.9630000000	43
82.9930000000	44
83.0230000000	44
83.0530000000	36
83.0830000000	34
83.1130000000	46
83.1430000000	44
83.1730000000	41
83.2030000000	43
83.2330000000	49
83.2630000000	36
83.2930000000	38
83.3230000000	42
83.3530000000	44
83.3830000000	49
83.4130000000	46
83.4430000000	49
83.4730000000	59
83.5030000000	65
83.5330000000	55
83.5630000000	58
83.5930000000	50
83.6230000000	59
83.6530000000	42
83.6830000000	43
83.7130000000	43
83.7430000000	55
83.7730000000	41
83.8030000000	45
83.8330000000	37
83.8630000000	45
83.8930000000	47
83.9230000000	43
83.9530000000	44
83.9830000000	40
84.0130000000	36
84.0430000000	46
84.0730000000	46
84.1030000000	52
84.1330000000	37
84.1630000000	44
84.1930000000	43
84.2230000000	34
84.2530000000	33
84.2830000000	35
84.3130000000	41
84.3430000000	30
84.3730000000	43
84.4030000000	37
84.4330000000	27
84.4630000000	33
84.4930000000	24
84.5230000000	30
84.5530000000	40
84.5830000000	36
84.6130000000	38
84.6430000000	41
84.6730000000	35
84.7030000000	31
84.7330000000	26
84.7630000000	44
84.7930000000	35
84.8230000000	40
84.8530000000	41
84.8830000000	47
84.9130000000	27
84.9430000000	29
84.9730000000	45
85.0030000000	30
85.0330000000	50
85.0630000000	27
85.0930000000	27
85.1230000000	32
85.1530000000	27
85.1830000000	52
85.2130000000	33
85.2430000000	25
85.2730000000	50
85.3030000000	40
85.3330000000	36
85.3630000000	36
85.3930000000	33
85.4230000000	45
85.4530000000	36
85.4830000000	40
85.5130000000	40
85.5430000000	38
85.5730000000	33
85.6030000000	36
85.6330000000	46
85.6630000000	45
85.6930000000	40
85.7230000000	37
85.7530000000	37
85.7830000000	46
85.8130000000	48
85.8430000000	47
85.8730000000	35
85.9030000000	35
85.9330000000	48
85.9630000000	42
85.9930000000	42
86.0230000000	49
86.0530000000	37
86.0830000000	42
86.1130000000	48
86.1430000000	43
86.1730000000	43
86.2030000000	41
86.2330000000	53
86.2630000000	41
86.2930000000	42
86.3230000000	36
86.3530000000	44
86.3830000000	33
86.4130000000	36
86.4430000000	43
86.4730000000	39
86.5030000000	44
86.5330000000	30
86.5630000000	41
86.5930000000	37
86.6230000000	33
86.6530000000	48
86.6830000000	45
86.7130000000	41
86.7430000000	50
86.7730000000	43
86.8030000000	41
86.8330000000	38
86.8630000000	45
86.8930000000	42
86.9230000000	35
86.9530000000	46
86.9830000000	50
87.0130000000	39
87.0430000000	35
87.0730000000	39
87.1030000000	48
87.1330000000	43
87.1630000000	39
87.1930000000	43
87.2230000000	36
87.2530000000	39
87.2830000000	45
87.3130000000	42
87.3430000000	43
87.3730000000	36
87.4030000000	46
87.4330000000	42
87.4630000000	45
87.4930000000	40
87.5230000000	40
87.5530000000	38
87.5830000000	41
87.6130000000	27
87.6430000000	44
87.6730000000	39
87.7030000000	29
87.7330000000	36
87.7630000000	41
87.7930000000	44
87.8230000000	37
87.8530000000	54
87.8830000000	37
87.9130000000	49
87.9430000000	50
87.9730000000	48
88.0030000000	37
88.0330000000	44
88.0630000000	41
88.0930000000	35
88.1230000000	39
88.1530000000	35
88.1830000000	51
88.2130000000	41
88.2430000000	51
88.2730000000	53
88.3030000000	38
88.3330000000	47
88.3630000000	56
88.3930000000	52
88.4230000000	63
88.4530000000	44
88.4830000000	48
88.5130000000	71
88.5430000000	39
88.5730000000	52
88.6030000000	45
88.6330000000	49
88.6630000000	55
88.6930000000	42
88.7230000000	44
88.7530000000	39
88.7830000000	43
88.8130000000	43
88.8430000000	39
88.8730000000	47
88.9030000000	42
88.9330000000	39
88.9630000000	46
88.9930000000	40
89.0230000000	33
89.0530000000	40
89.0830000000	34
89.1130000000	35
89.1430000000	57
89.1730000000	35
89.2030000000	38
89.2330000000	45
89.2630000000	46
89.2930000000	35
89.3230000000	35
89.3530000000	43
89.3830000000	35
89.4130000000	36
89.4430000000	50
89.4730000000	52
89.5030000000	52
89.5330000000	47
89.5630000000	45
89.5930000000	53
89.6230000000	47
89.6530000000	45
89.6830000000	45
89.7130000000	45
89.7430000000	52
89.7730000000	53
89.8030000000	46
89.8330000000	47
89.8630000000	54
89.8930000000	51
89.9230000000	54
89.9530000000	49
89.9830000000	50
90.0130000000	44
90.0430000000	41
90.0730000000	53
90.1030000000	42
90.1330000000	35
90.1630000000	53
90.1930000000	47
90.2230000000	40
90.2530000000	29
90.2830000000	40
90.3130000000	41
90.3430000000	30
90.3730000000	32
90.4030000000	41
90.4330000000	30
90.4630000000	37
90.4930000000	46
90.5230000000	45
90.5530000000	57
90.5830000000	33
90.6130000000	30
90.6430000000	34
90.6730000000	42
90.7030000000	37
90.7330000000	37
90.7630000000	34
90.7930000000	40
90.8230000000	48
90.8530000000	30
90.8830000000	52
90.9130000000	35
90.9430000000	38
90.9730000000	38
91.0030000000	29
91.0330000000	43
91.0630000000	40
91.0930000000	31
91.1230000000	40
91.1530000000	34
91.1830000000	41
91.2130000000	38
91.2430000000	40
91.2730000000	42
91.3030000000	50
91.3330000000	41
91.3630000000	32
91.3930000000	34
91.4230000000	43
91.4530000000	42
91.4830000000	49
91.5130000000	39
91.5430000000	41
91.5730000000	46
91.6030000000	47
91.6330000000	38
91.6630000000	34
91.6930000000	46
91.7230000000	48
91.7530000000	52
91.7830000000	32
91.8130000000	36
91.8430000000	44
91.8730000000	38
91.9030000000	42
91.9330000000	30
91.9630000000	31
91.9930000000	34
92.0230000000	41
92.0530000000	41
92.0830000000	33
92.1130000000	39
92.1430000000	36
92.1730000000	43
92.2030000000	52
92.2330000000	41
92.2630000000	48
92.2930000000	40
92.3230000000	43
92.3530000000	35
92.3830000000	46
92.4130000000	37
92.4430000000	45
92.4730000000	39
92.5030000000	44
92.5330000000	60
92.5630000000	43
92.5930000000	37
92.6230000000	29
92.6530000000	49
92.6830000000	36
92.7130000000	37
92.7430000000	50
92.7730000000	28
92.8030000000	38
92.8330000000	44
92.8630000000	39
92.8930000000	30
92.9230000000	32
92.9530000000	35
92.9830000000	43
93.0130000000	39
93.0430000000	33
93.0730000000	37
93.1030000000	40
93.1330000000	24
93.1630000000	32
93.1930000000	39
93.2230000000	33
93.2530000000	41
93.2830000000	41
93.3130000000	30
93.3430000000	32
93.3730000000	43
93.4030000000	47
93.4330000000	35
93.4630000000	41
93.4930000000	34
93.5230000000	40
93.5530000000	45
93.5830000000	54
93.6130000000	24
93.6430000000	43
93.6730000000	39
93.7030000000	38
93.7330000000	43
93.7630000000	37
93.7930000000	42
93.8230000000	35
93.8530000000	40
93.8830000000	46
93.9130000000	40
93.9430000000	33
93.9730000000	46
94.0030000000	39
94.0330000000	36
94.0630000000	35
94.0930000000	40
94.1230000000	42
94.1530000000	30
94.1830000000	31
94.2130000000	53
94.2430000000	35
94.2730000000	42
94.3030000000	39
94.3330000000	37
94.3630000000	36
94.3930000000	41
94.4230000000	37
94.4530000000	29
94.4830000000	39
94.5130000000	36
94.5430000000	34
94.5730000000	30
94.6030000000	33
94.6330000000	31
94.6630000000	37
94.6930000000	42
94.7230000000	32
94.7530000000	34
94.7830000000	40
94.8130000000	31
94.8430000000	29
94.8730000000	33
94.9030000000	41
94.9330000000	33
94.9630000000	37
94.9930000000	37
95.0230000000	39
95.0530000000	40
95.0830000000	37
95.1130000000	35
95.1430000000	37
95.1730000000	28
95.2030000000	41
95.2330000000	38
95.2630000000	43
95.2930000000	33
95.3230000000	35
95.3530000000	39
95.3830000000	34
95.4130000000	42
95.4430000000	36
95.4730000000	29
95.5030000000	37
95.5330000000	42
95.5630000000	41
95.5930000000	41
95.6230000000	41
95.6530000000	37
95.6830000000	41
95.7130000000	34
95.7430000000	32
95.7730000000	37
95.8030000000	39
95.8330000000	30
95.8630000000	33
95.8930000000	39
95.9230000000	41
95.9530000000	29
95.9830000000	33
96.0130000000	45
96.0430000000	41
96.0730000000	36
96.1030000000	38
96.1330000000	40
96.1630000000	35
96.1930000000	29
96.2230000000	40
96.2530000000	37
96.2830000000	30
96.3130000000	29
96.3430000000	36
96.3730000000	42
96.4030000000	36
96.4330000000	40
96.4630000000	35
96.4930000000	44
96.5230000000	49
96.5530000000	35
96.5830000000	31
96.6130000000	45
96.6430000000	35
96.6730000000	35
96.7030000000	37
96.7330000000	37
96.7630000000	44
96.7930000000	43
96.8230000000	36
96.8530000000	38
96.8830000000	43
96.9130000000	41
96.9430000000	39
96.9730000000	46
97.0030000000	35
97.0330000000	32
97.0630000000	34
97.0930000000	44
97.1230000000	47
97.1530000000	43
97.1830000000	43
97.2130000000	43
97.2430000000	39
97.2730000000	39
97.3030000000	35
97.3330000000	40
97.3630000000	36
97.3930000000	37
97.4230000000	40
97.4530000000	36
97.4830000000	38
97.5130000000	34
97.5430000000	31
97.5730000000	35
97.6030000000	39
97.6330000000	34
97.6630000000	35
97.6930000000	42
97.7230000000	30
97.7530000000	52
97.7830000000	35
97.8130000000	36
97.8430000000	35
97.8730000000	27
97.9030000000	35
97.9330000000	32
97.9630000000	38
97.9930000000	37
98.0230000000	37
98.0530000000	37
98.0830000000	30
98.1130000000	38
98.1430000000	30
98.1730000000	31
98.2030000000	33
98.2330000000	35
98.2630000000	45
98.2930000000	40
98.3230000000	37
98.3530000000	45
98.3830000000	38
98.4130000000	37
98.4430000000	34
98.4730000000	23
98.5030000000	47
98.5330000000	39
98.5630000000	28
98.5930000000	38
98.6230000000	41
98.6530000000	32
98.6830000000	40
98.7130000000	43
98.7430000000	37
98.7730000000	34
98.8030000000	37
98.8330000000	32
98.8630000000	22
98.8930000000	43
98.9230000000	36
98.9530000000	37
98.9830000000	37
99.0130000000	38
99.0430000000	48
99.0730000000	51
99.1030000000	39
99.1330000000	43
99.1630000000	46
99.1930000000	23
99.2230000000	31
99.2530000000	37
99.2830000000	37
99.3130000000	35
99.3430000000	37
99.3730000000	32
99.4030000000	43
99.4330000000	28
99.4630000000	38
99.4930000000	40
99.5230000000	34
99.5530000000	31
99.5830000000	33
99.6130000000	22
99.6430000000	37
99.6730000000	35
99.7030000000	45
99.7330000000	32
99.7630000000	39
99.7930000000	37
99.8230000000	32
99.8530000000	33
99.8830000000	32
99.9130000000	29
99.9430000000	36
99.9730000000	33
100.0030000000	28
100.0330000000	26
100.0630000000	39
100.0930000000	39
100.1230000000	27
100.1530000000	28
100.1830000000	31
100.2130000000	31
100.2430000000	35
100.2730000000	30
100.3030000000	41
100.3330000000	35
100.3630000000	30
100.3930000000	37
100.4230000000	46
100.4530000000	38
100.4830000000	35
100.5130000000	32
100.5430000000	27
100.5730000000	34
100.6030000000	40
100.6330000000	29
100.6630000000	31
100.6930000000	41
100.7230000000	34
100.7530000000	35
100.7830000000	35
100.8130000000	41
100.8430000000	41
100.8730000000	28
100.9030000000	37
100.9330000000	39
100.9630000000	36
100.9930000000	38
101.0230000000	37
101.0530000000	35
101.0830000000	42
101.1130000000	38
101.1430000000	37
101.1730000000	55
101.2030000000	42
101.2330000000	36
101.2630000000	44
101.2930000000	41
101.3230000000	32
101.3530000000	37
101.3830000000	38
101.4130000000	39
101.4430000000	43
101.4730000000	40
101.5030000000	40
101.5330000000	42
101.5630000000	44
101.5930000000	35
101.6230000000	26
101.6530000000	37
101.6830000000	49
101.7130000000	39
101.7430000000	37
101.7730000000	35
101.8030000000	29
101.8330000000	31
101.8630000000	31
101.8930000000	32
101.9230000000	46
101.9530000000	44
101.9830000000	40
102.0130000000	34
102.0430000000	36
102.0730000000	36
102.1030000000	37
102.1330000000	35
102.1630000000	38
102.1930000000	31
102.2230000000	33
102.2530000000	43
102.2830000000	30
102.3130000000	29
102.3430000000	31
102.3730000000	54
102.4030000000	29
102.4330000000	33
102.4630000000	31
102.4930000000	31
102.5230000000	33
102.5530000000	30
102.5830000000	27
102.6130000000	30
102.6430000000	41
102.6730000000	30
102.7030000000	35
102.7330000000	28
102.7630000000	51
102.7930000000	28
102.8230000000	27
102.8530000000	38
102.8830000000	39
102.9130000000	29
102.9430000000	44
102.9730000000	33
103.0030000000	34
103.0330000000	41
103.0630000000	28
103.0930000000	34
103.1230000000	34
103.1530000000	35
103.1830000000	37
103.2130000000	36
103.2430000000	34
103.2730000000	32
103.3030000000	35
103.3330000000	34
103.3630000000	34
103.3930000000	40
103.4230000000	38
103.4530000000	35
103.4830000000	32
103.5130000000	45
103.5430000000	42
103.5730000000	42
103.6030000000	34
103.6330000000	35
103.6630000000	26
103.6930000000	36
103.7230000000	43
103.7530000000	43
103.7830000000	28
103.8130000000	46
103.8430000000	29
103.8730000000	36
103.9030000000	39
103.9330000000	28
103.9630000000	31
103.9930000000	35
104.0230000000	38
104.0530000000	34
104.0830000000	34
104.1130000000	33
104.1430000000	46
104.1730000000	42
104.2030000000	44
104.2330000000	32
104.2630000000	35
104.2930000000	42
104.3230000000	42
104.3530000000	27
104.3830000000	24
104.4130000000	36
104.4430000000	28
104.4730000000	28
104.5030000000	35
104.5330000000	41
104.5630000000	36
104.5930000000	34
104.6230000000	41
104.6530000000	48
104.6830000000	44
104.7130000000	42
104.7430000000	40
104.7730000000	43
104.8030000000	47
104.8330000000	43
104.8630000000	39
104.8930000000	41
104.9230000000	44
104.9530000000	35
104.9830000000	33
105.0130000000	36
105.0430000000	42
105.0730000000	36
105.1030000000	35
105.1330000000	41
105.1630000000	37
105.1930000000	34
105.2230000000	40
105.2530000000	43
105.2830000000	28
105.3130000000	40
105.3430000000	35
105.3730000000	33
105.4030000000	44
105.4330000000	43
105.4630000000	30
105.4930000000	29
105.5230000000	26
105.5530000000	28
105.5830000000	31
105.6130000000	33
105.6430000000	30
105.6730000000	44
105.7030000000	43
105.7330000000	38
105.7630000000	37
105.7930000000	32
105.8230000000	32
105.8530000000	37
105.8830000000	45
105.9130000000	38
105.9430000000	34
105.9730000000	35
106.0030000000	25
106.0330000000	32
106.0630000000	38
106.0930000000	42
106.1230000000	27
106.1530000000	31
106.1830000000	30
106.2130000000	49
106.2430000000	44
106.2730000000	38
106.3030000000	40
106.3330000000	30
106.3630000000	32
106.3930000000	42
106.4230000000	34
106.4530000000	34
106.4830000000	32
106.5130000000	36
106.5430000000	33
106.5730000000	35
106.6030000000	41
106.6330000000	43
106.6630000000	38
106.6930000000	36
106.7230000000	39
106.7530000000	39
106.7830000000	38
106.8130000000	45
106.8430000000	41
106.8730000000	37
106.9030000000	43
106.9330000000	48
106.9630000000	45
106.9930000000	43
107.0230000000	37
107.0530000000	41
107.0830000000	45
107.1130000000	50
107.1430000000	43
107.1730000000	41
107.2030000000	47
107.2330000000	40
107.2630000000	35
107.2930000000	34
107.3230000000	39
107.3530000000	40
107.3830000000	48
107.4130000000	44
107.4430000000	46
107.4730000000	40
107.5030000000	35
107.5330000000	42
107.5630000000	35
107.5930000000	36
107.6230000000	38
107.6530000000	39
107.6830000000	40
107.7130000000	36
107.7430000000	40
107.7730000000	36
107.8030000000	28
107.8330000000	39
107.8630000000	46
107.8930000000	44
107.9230000000	44
107.9530000000	42
107.9830000000	38
108.0130000000	36
108.0430000000	45
108.0730000000	35
108.1030000000	38
108.1330000000	48
108.1630000000	47
108.1930000000	39
108.2230000000	26
108.2530000000	39
108.2830000000	29
108.3130000000	41
108.3430000000	34
108.3730000000	45
108.4030000000	33
108.4330000000	36
108.4630000000	46
108.4930000000	35
108.5230000000	35
108.5530000000	30
108.5830000000	35
108.6130000000	38
108.6430000000	47
108.6730000000	35
108.7030000000	40
108.7330000000	39
108.7630000000	39
108.7930000000	31
108.8230000000	37
108.8530000000	30
108.8830000000	41
108.9130000000	34
108.9430000000	35
108.9730000000	36
109.0030000000	44
109.0330000000	42
109.0630000000	47
109.0930000000	40
109.1230000000	31
109.1530000000	29
109.1830000000	31
109.2130000000	43
109.2430000000	34
109.2730000000	42
109.3030000000	38
109.3330000000	48
109.3630000000	33
109.3930000000	35
109.4230000000	44
109.4530000000	28
109.4830000000	35
109.5130000000	30
109.5430000000	36
109.5730000000	47
109.6030000000	43
109.6330000000	44
109.6630000000	40
109.6930000000	41
109.7230000000	46
109.7530000000	47
109.7830000000	44
109.8130000000	32
109.8430000000	29
109.8730000000	37
109.9030000000	35
109.9330000000	45
109.9630000000	38
109.9930000000	49
110.0230000000	43
110.0530000000	37
110.0830000000	40
110.1130000000	40
110.1430000000	44
110.1730000000	50
110.2030000000	52
110.2330000000	41
110.2630000000	38
110.2930000000	37
110.3230000000	37
110.3530000000	46
110.3830000000	41
110.4130000000	39
110.4430000000	37
110.4730000000	47
110.5030000000	38
110.5330000000	37
110.5630000000	30
110.5930000000	44
110.6230000000	38
110.6530000000	32
110.6830000000	38
110.7130000000	41
110.7430000000	38
110.7730000000	41
110.8030000000	36
110.8330000000	34
110.8630000000	35
110.8930000000	38
110.9230000000	33
110.9530000000	35
110.9830000000	44
111.0130000000	47
111.0430000000	41
111.0730000000	33
111.1030000000	36
111.1330000000	38
111.1630000000	36
111.1930000000	34
111.2230000000	42
111.2530000000	63
111.2830000000	47
111.3130000000	46
111.3430000000	48
111.3730000000	46
111.4030000000	46
111.4330000000	36
111.4630000000	35
111.4930000000	45
111.5230000000	42
111.5530000000	45
111.5830000000	40
111.6130000000	45
111.6430000000	40
111.6730000000	40
111.7030000000	50
111.7330000000	51
111.7630000000	38
111.7930000000	33
111.8230000000	43
111.8530000000	45
111.8830000000	36
111.9130000000	50
111.9430000000	41
111.9730000000	30
112.0030000000	41
112.0330000000	42
112.0630000000	41
112.0930000000	39
112.1230000000	32
112.1530000000	44
112.1830000000	36
112.2130000000	30
112.2430000000	50
112.2730000000	43
112.3030000000	56
112.3330000000	40
112.3630000000	28
112.3930000000	43
112.4230000000	43
112.4530000000	33
112.4830000000	31
112.5130000000	42
112.5430000000	30
112.5730000000	37
112.6030000000	39
112.6330000000	39
112.6630000000	44
112.6930000000	48
112.7230000000	44
112.7530000000	46
112.7830000000	48
112.8130000000	38
112.8430000000	41
112.8730000000	36
112.9030000000	42
112.9330000000	51
112.9630000000	44
112.9930000000	35
113.0230000000	48
113.0530000000	45
113.0830000000	58
113.1130000000	58
113.1430000000	52
113.1730000000	52
113.2030000000	64
113.2330000000	61
113.2630000000	78
113.2930000000	82
113.3230000000	69
113.3530000000	70
113.3830000000	56
113.4130000000	51
113.4430000000	56
113.4730000000	42
113.5030000000	51
113.5330000000	59
113.5630000000	50
113.5930000000	56
113.6230000000	48
113.6530000000	61
113.6830000000	54
113.7130000000	52
113.7430000000	47
113.7730000000	42
113.8030000000	48
113.8330000000	46
113.8630000000	32
113.8930000000	30
113.9230000000	50
113.9530000000	48
113.9830000000	33
114.0130000000	27
114.0430000000	39
114.0730000000	42
114.1030000000	37
114.1330000000	49
114.1630000000	34
114.1930000000	40
114.2230000000	42
114.2530000000	48
114.2830000000	54
114.3130000000	43
114.3430000000	36
114.3730000000	40
114.4030000000	40
114.4330000000	45
114.4630000000	1
114.4930000000	1
114.5230000000	1
114.5530000000	1
114.5830000000	1
