0.3130000000	2
0.3430000000	2
0.3730000000	1
0.4030000000	1
0.4330000000	1
0.4630000000	2
0.4930000000	1
0.5230000000	2
0.5530000000	1
0.5830000000	1
0.6130000000	2
0.6430000000	1
0.6730000000	1
0.7030000000	1
0.7330000000	1
0.7630000000	2
0.7930000000	1
0.8230000000	1
0.8530000000	1
0.8830000000	1
0.9130000000	1
0.9430000000	1
0.9730000000	2
1.0030000000	1
1.0330000000	1
1.0630000000	1
1.0930000000	1
1.1230000000	2
1.1530000000	2
1.1830000000	1
1.2130000000	1
1.2430000000	2
1.2730000000	1
1.3030000000	2
1.3330000000	2
1.3630000000	3
1.3930000000	1
1.4230000000	1
1.4530000000	1
1.4830000000	1
1.5130000000	1
1.5430000000	1
1.5730000000	1
1.6030000000	1
1.6330000000	1
1.6630000000	1
1.6930000000	1
1.7230000000	1
1.7530000000	1
1.7830000000	1
1.8130000000	2
1.8430000000	1
1.8730000000	1
1.9030000000	1
1.9330000000	1
1.9630000000	2
1.9930000000	1
2.0230000000	1
2.0530000000	2
2.0830000000	1
2.1130000000	1
2.1430000000	1
2.1730000000	2
2.2030000000	1
2.2330000000	4
2.2630000000	3
2.2930000000	1
2.3230000000	1
2.3530000000	2
2.3830000000	2
2.4130000000	1
2.4430000000	2
2.4730000000	3
2.5030000000	2
2.5330000000	2
2.5630000000	1
2.5930000000	1
2.6230000000	2
2.6530000000	1
2.6830000000	1
2.7130000000	3
2.7430000000	1
2.7730000000	1
2.8030000000	1
2.8330000000	1
2.8630000000	1
2.8930000000	1
2.9230000000	1
2.9530000000	1
2.9830000000	2
3.0130000000	1
3.0430000000	2
3.0730000000	2
3.1030000000	3
3.1330000000	1
3.1630000000	2
3.1930000000	1
3.2230000000	1
3.2530000000	1
3.2830000000	1
3.3130000000	2
3.3430000000	2
3.3730000000	2
3.4030000000	1
3.4330000000	2
3.4630000000	2
3.4930000000	3
3.5230000000	1
3.5530000000	1
3.5830000000	1
3.6130000000	2
3.6430000000	3
3.6730000000	1
3.7030000000	2
3.7330000000	5
3.7630000000	1
3.7930000000	2
3.8230000000	2
3.8530000000	3
3.8830000000	4
3.9130000000	2
3.9430000000	3
3.9730000000	2
4.0030000000	3
4.0330000000	2
4.0630000000	2
4.0930000000	4
4.1230000000	1
4.1530000000	2
4.1830000000	4
4.2130000000	2
4.2430000000	4
4.2730000000	2
4.3030000000	1
4.3330000000	2
4.3630000000	5
4.3930000000	2
4.4230000000	7
4.4530000000	13
4.4830000000	16
4.5130000000	13
4.5430000000	35
4.5730000000	59
4.6030000000	70
4.6330000000	95
4.6630000000	124
4.6930000000	124
4.7230000000	143
4.7530000000	132
4.7830000000	123
4.8130000000	119
4.8430000000	134
4.8730000000	142
4.9030000000	143
4.9330000000	142
4.9630000000	141
4.9930000000	144
5.0230000000	137
5.0530000000	138
5.0830000000	145
5.1130000000	145
5.1430000000	162
5.1730000000	160
5.2030000000	138
5.2330000000	123
5.2630000000	146
5.2930000000	128
5.3230000000	146
5.3530000000	166
5.3830000000	136
5.4130000000	129
5.4430000000	146
5.4730000000	153
5.5030000000	164
5.5330000000	136
5.5630000000	143
5.5930000000	133
5.6230000000	166
5.6530000000	162
5.6830000000	140
5.7130000000	167
5.7430000000	157
5.7730000000	162
5.8030000000	143
5.8330000000	158
5.8630000000	139
5.8930000000	148
5.9230000000	169
5.9530000000	155
5.9830000000	138
6.0130000000	152
6.0430000000	131
6.0730000000	152
6.1030000000	130
6.1330000000	143
6.1630000000	157
6.1930000000	162
6.2230000000	141
6.2530000000	155
6.2830000000	148
6.3130000000	131
6.3430000000	143
6.3730000000	148
6.4030000000	137
6.4330000000	146
6.4630000000	135
6.4930000000	145
6.5230000000	150
6.5530000000	140
6.5830000000	146
6.6130000000	147
6.6430000000	138
6.6730000000	134
6.7030000000	133
6.7330000000	164
6.7630000000	166
6.7930000000	148
6.8230000000	153
6.8530000000	152
6.8830000000	126
6.9130000000	158
6.9430000000	136
6.9730000000	147
7.0030000000	152
7.0330000000	146
7.0630000000	132
7.0930000000	145
7.1230000000	135
7.1530000000	160
7.1830000000	160
7.2130000000	148
7.2430000000	144
7.2730000000	156
7.3030000000	134
7.3330000000	140
7.3630000000	134
7.3930000000	134
7.4230000000	145
7.4530000000	143
7.4830000000	132
7.5130000000	129
7.5430000000	139
7.5730000000	122
7.6030000000	133
7.6330000000	142
7.6630000000	138
7.6930000000	127
7.7230000000	140
7.7530000000	155
7.7830000000	144
7.8130000000	142
7.8430000000	143
7.8730000000	160
7.9030000000	166
7.9330000000	149
7.9630000000	141
7.9930000000	139
8.0230000000	144
8.0530000000	145
8.0830000000	146
8.1130000000	154
8.1430000000	152
8.1730000000	124
8.2030000000	141
8.2330000000	152
8.2630000000	134
8.2930000000	120
8.3230000000	126
8.3530000000	150
8.3830000000	151
8.4130000000	145
8.4430000000	123
8.4730000000	153
8.5030000000	149
8.5330000000	145
8.5630000000	137
8.5930000000	146
8.6230000000	135
8.6530000000	150
8.6830000000	132
8.7130000000	169
8.7430000000	134
8.7730000000	140
8.8030000000	140
8.8330000000	143
8.8630000000	149
8.8930000000	144
8.9230000000	147
8.9530000000	153
8.9830000000	159
9.0130000000	151
9.0430000000	143
9.0730000000	168
9.1030000000	127
9.1330000000	138
9.1630000000	127
9.1930000000	163
9.2230000000	177
9.2530000000	173
9.2830000000	135
9.3130000000	164
9.3430000000	152
9.3730000000	154
9.4030000000	134
9.4330000000	140
9.4630000000	138
9.4930000000	139
9.5230000000	136
9.5530000000	160
9.5830000000	139
9.6130000000	147
9.6430000000	146
9.6730000000	152
9.7030000000	147
9.7330000000	154
9.7630000000	163
9.7930000000	145
9.8230000000	150
9.8530000000	137
9.8830000000	144
9.9130000000	136
9.9430000000	143
9.9730000000	144
10.0030000000	143
10.0330000000	140
10.0630000000	150
10.0930000000	138
10.1230000000	144
10.1530000000	157
10.1830000000	148
10.2130000000	151
10.2430000000	135
10.2730000000	156
10.3030000000	133
10.3330000000	161
10.3630000000	145
10.3930000000	138
10.4230000000	157
10.4530000000	142
10.4830000000	130
10.5130000000	136
10.5430000000	157
10.5730000000	145
10.6030000000	155
10.6330000000	140
10.6630000000	139
10.6930000000	135
10.7230000000	149
10.7530000000	150
10.7830000000	146
10.8130000000	137
10.8430000000	144
10.8730000000	139
10.9030000000	158
10.9330000000	144
10.9630000000	149
10.9930000000	141
11.0230000000	147
11.0530000000	150
11.0830000000	139
11.1130000000	154
11.1430000000	146
11.1730000000	148
11.2030000000	162
11.2330000000	146
11.2630000000	157
11.2930000000	134
11.3230000000	147
11.3530000000	146
11.3830000000	150
11.4130000000	145
11.4430000000	162
11.4730000000	146
11.5030000000	150
11.5330000000	149
11.5630000000	149
11.5930000000	134
11.6230000000	141
11.6530000000	146
11.6830000000	142
11.7130000000	136
11.7430000000	179
11.7730000000	160
11.8030000000	142
11.8330000000	140
11.8630000000	160
11.8930000000	147
11.9230000000	134
11.9530000000	144
11.9830000000	146
12.0130000000	138
12.0430000000	143
12.0730000000	133
12.1030000000	132
12.1330000000	146
12.1630000000	152
12.1930000000	148
12.2230000000	136
12.2530000000	154
12.2830000000	154
12.3130000000	147
12.3430000000	135
12.3730000000	144
12.4030000000	150
12.4330000000	128
12.4630000000	128
12.4930000000	164
12.5230000000	158
12.5530000000	157
12.5830000000	149
12.6130000000	159
12.6430000000	162
12.6730000000	140
12.7030000000	134
12.7330000000	148
12.7630000000	144
12.7930000000	143
12.8230000000	140
12.8530000000	140
12.8830000000	136
12.9130000000	152
12.9430000000	162
12.9730000000	152
13.0030000000	135
13.0330000000	140
13.0630000000	154
13.0930000000	140
13.1230000000	134
13.1530000000	138
13.1830000000	158
13.2130000000	153
13.2430000000	170
13.2730000000	138
13.3030000000	140
13.3330000000	138
13.3630000000	141
13.3930000000	138
13.4230000000	142
13.4530000000	145
13.4830000000	144
13.5130000000	154
13.5430000000	142
13.5730000000	148
13.6030000000	143
13.6330000000	133
13.6630000000	146
13.6930000000	154
13.7230000000	142
13.7530000000	151
13.7830000000	146
13.8130000000	132
13.8430000000	147
13.8730000000	128
13.9030000000	139
13.9330000000	131
13.9630000000	164
13.9930000000	151
14.0230000000	153
14.0530000000	147
14.0830000000	139
14.1130000000	157
14.1430000000	132
14.1730000000	142
14.2030000000	150
14.2330000000	133
14.2630000000	156
14.2930000000	162
14.3230000000	150
14.3530000000	156
14.3830000000	137
14.4130000000	141
14.4430000000	143
14.4730000000	161
14.5030000000	142
14.5330000000	159
14.5630000000	130
14.5930000000	131
14.6230000000	144
14.6530000000	153
14.6830000000	144
14.7130000000	156
14.7430000000	134
14.7730000000	136
14.8030000000	157
14.8330000000	152
14.8630000000	154
14.8930000000	146
14.9230000000	133
14.9530000000	137
14.9830000000	160
15.0130000000	171
15.0430000000	154
15.0730000000	173
15.1030000000	124
15.1330000000	162
15.1630000000	147
15.1930000000	155
15.2230000000	134
15.2530000000	145
15.2830000000	151
15.3130000000	148
15.3430000000	159
15.3730000000	144
15.4030000000	153
15.4330000000	144
15.4630000000	131
15.4930000000	163
15.5230000000	156
15.5530000000	148
15.5830000000	132
15.6130000000	152
15.6430000000	156
15.6730000000	142
15.7030000000	146
15.7330000000	154
15.7630000000	140
15.7930000000	142
15.8230000000	130
15.8530000000	137
15.8830000000	143
15.9130000000	149
15.9430000000	123
15.9730000000	147
16.0030000000	144
16.0330000000	144
16.0630000000	168
16.0930000000	136
16.1230000000	138
16.1530000000	148
16.1830000000	147
16.2130000000	145
16.2430000000	177
16.2730000000	154
16.3030000000	155
16.3330000000	140
16.3630000000	144
16.3930000000	149
16.4230000000	146
16.4530000000	154
16.4830000000	142
16.5130000000	134
16.5430000000	140
16.5730000000	125
16.6030000000	148
16.6330000000	155
16.6630000000	146
16.6930000000	131
16.7230000000	154
16.7530000000	145
16.7830000000	147
16.8130000000	148
16.8430000000	145
16.8730000000	139
16.9030000000	149
16.9330000000	151
16.9630000000	153
16.9930000000	159
17.0230000000	135
17.0530000000	148
17.0830000000	157
17.1130000000	141
17.1430000000	148
17.1730000000	155
17.2030000000	137
17.2330000000	132
17.2630000000	154
17.2930000000	158
17.3230000000	155
17.3530000000	135
17.3830000000	139
17.4130000000	143
17.4430000000	138
17.4730000000	126
17.5030000000	136
17.5330000000	143
17.5630000000	154
17.5930000000	159
17.6230000000	143
17.6530000000	150
17.6830000000	156
17.7130000000	156
17.7430000000	144
17.7730000000	124
17.8030000000	120
17.8330000000	150
17.8630000000	156
17.8930000000	147
17.9230000000	148
17.9530000000	152
17.9830000000	156
18.0130000000	151
18.0430000000	139
18.0730000000	114
18.1030000000	135
18.1330000000	151
18.1630000000	136
18.1930000000	120
18.2230000000	104
18.2530000000	134
18.2830000000	141
18.3130000000	145
18.3430000000	126
18.3730000000	131
18.4030000000	167
18.4330000000	145
18.4630000000	135
18.4930000000	130
18.5230000000	118
18.5530000000	108
18.5830000000	135
18.6130000000	152
18.6430000000	142
18.6730000000	139
18.7030000000	126
18.7330000000	158
18.7630000000	143
18.7930000000	150
18.8230000000	134
18.8530000000	137
18.8830000000	145
18.9130000000	152
18.9430000000	128
18.9730000000	170
19.0030000000	152
19.0330000000	150
19.0630000000	157
19.0930000000	159
19.1230000000	149
19.1530000000	145
19.1830000000	159
19.2130000000	161
19.2430000000	133
19.2730000000	145
19.3030000000	149
19.3330000000	139
19.3630000000	172
19.3930000000	164
19.4230000000	142
19.4530000000	154
19.4830000000	143
19.5130000000	150
19.5430000000	153
19.5730000000	141
19.6030000000	151
19.6330000000	144
19.6630000000	157
19.6930000000	143
19.7230000000	138
19.7530000000	174
19.7830000000	154
19.8130000000	155
19.8430000000	142
19.8730000000	151
19.9030000000	162
19.9330000000	168
19.9630000000	147
19.9930000000	149
20.0230000000	150
20.0530000000	154
20.0830000000	131
20.1130000000	153
20.1430000000	150
20.1730000000	141
20.2030000000	143
20.2330000000	146
20.2630000000	148
20.2930000000	142
20.3230000000	160
20.3530000000	148
20.3830000000	155
20.4130000000	144
20.4430000000	140
20.4730000000	149
20.5030000000	157
20.5330000000	163
20.5630000000	172
20.5930000000	155
20.6230000000	173
20.6530000000	167
20.6830000000	254
20.7130000000	302
20.7430000000	377
20.7730000000	481
20.8030000000	631
20.8330000000	842
20.8630000000	953
20.8930000000	938
20.9230000000	747
20.9530000000	577
20.9830000000	383
21.0130000000	321
21.0430000000	227
21.0730000000	223
21.1030000000	184
21.1330000000	195
21.1630000000	142
21.1930000000	150
21.2230000000	153
21.2530000000	168
21.2830000000	149
21.3130000000	163
21.3430000000	164
21.3730000000	159
21.4030000000	164
21.4330000000	160
21.4630000000	145
21.4930000000	149
21.5230000000	157
21.5530000000	161
21.5830000000	153
21.6130000000	150
21.6430000000	175
21.6730000000	178
21.7030000000	149
21.7330000000	167
21.7630000000	154
21.7930000000	149
21.8230000000	163
21.8530000000	174
21.8830000000	172
21.9130000000	151
21.9430000000	146
21.9730000000	151
22.0030000000	153
22.0330000000	154
22.0630000000	185
22.0930000000	179
22.1230000000	186
22.1530000000	172
22.1830000000	154
22.2130000000	137
22.2430000000	163
22.2730000000	152
22.3030000000	142
22.3330000000	165
22.3630000000	178
22.3930000000	168
22.4230000000	160
22.4530000000	160
22.4830000000	188
22.5130000000	175
22.5430000000	158
22.5730000000	176
22.6030000000	181
22.6330000000	172
22.6630000000	158
22.6930000000	160
22.7230000000	165
22.7530000000	171
22.7830000000	146
22.8130000000	160
22.8430000000	176
22.8730000000	167
22.9030000000	160
22.9330000000	165
22.9630000000	168
22.9930000000	167
23.0230000000	158
23.0530000000	160
23.0830000000	160
23.1130000000	153
23.1430000000	182
23.1730000000	153
23.2030000000	193
23.2330000000	177
23.2630000000	185
23.2930000000	150
23.3230000000	179
23.3530000000	165
23.3830000000	164
23.4130000000	176
23.4430000000	155
23.4730000000	170
23.5030000000	175
23.5330000000	177
23.5630000000	170
23.5930000000	152
23.6230000000	155
23.6530000000	160
23.6830000000	176
23.7130000000	182
23.7430000000	166
23.7730000000	176
23.8030000000	155
23.8330000000	166
23.8630000000	153
23.8930000000	155
23.9230000000	130
23.9530000000	154
23.9830000000	173
24.0130000000	178
24.0430000000	177
24.0730000000	176
24.1030000000	124
24.1330000000	152
24.1630000000	177
24.1930000000	145
24.2230000000	158
24.2530000000	160
24.2830000000	167
24.3130000000	164
24.3430000000	157
24.3730000000	150
24.4030000000	147
24.4330000000	161
24.4630000000	138
24.4930000000	187
24.5230000000	176
24.5530000000	154
24.5830000000	166
24.6130000000	156
24.6430000000	146
24.6730000000	165
24.7030000000	180
24.7330000000	184
24.7630000000	153
24.7930000000	144
24.8230000000	136
24.8530000000	153
24.8830000000	177
24.9130000000	186
24.9430000000	183
24.9730000000	154
25.0030000000	163
25.0330000000	140
25.0630000000	143
25.0930000000	168
25.1230000000	156
25.1530000000	149
25.1830000000	178
25.2130000000	176
25.2430000000	164
25.2730000000	156
25.3030000000	161
25.3330000000	165
25.3630000000	180
25.3930000000	167
25.4230000000	164
25.4530000000	171
25.4830000000	152
25.5130000000	179
25.5430000000	163
25.5730000000	196
25.6030000000	178
25.6330000000	192
25.6630000000	172
25.6930000000	161
25.7230000000	192
25.7530000000	196
25.7830000000	193
25.8130000000	256
25.8430000000	287
25.8730000000	379
25.9030000000	524
25.9330000000	719
25.9630000000	927
25.9930000000	1247
26.0230000000	1402
26.0530000000	1424
26.0830000000	1155
26.1130000000	835
26.1430000000	554
26.1730000000	402
26.2030000000	297
26.2330000000	242
26.2630000000	186
26.2930000000	191
26.3230000000	192
26.3530000000	160
26.3830000000	165
26.4130000000	158
26.4430000000	161
26.4730000000	149
26.5030000000	161
26.5330000000	174
26.5630000000	157
26.5930000000	156
26.6230000000	134
26.6530000000	132
26.6830000000	145
26.7130000000	157
26.7430000000	163
26.7730000000	153
26.8030000000	136
26.8330000000	153
26.8630000000	171
26.8930000000	169
26.9230000000	163
26.9530000000	144
26.9830000000	151
27.0130000000	164
27.0430000000	154
27.0730000000	122
27.1030000000	128
27.1330000000	151
27.1630000000	140
27.1930000000	142
27.2230000000	145
27.2530000000	151
27.2830000000	161
27.3130000000	158
27.3430000000	158
27.3730000000	145
27.4030000000	138
27.4330000000	138
27.4630000000	145
27.4930000000	150
27.5230000000	125
27.5530000000	138
27.5830000000	125
27.6130000000	141
27.6430000000	158
27.6730000000	153
27.7030000000	141
27.7330000000	147
27.7630000000	141
27.7930000000	148
27.8230000000	158
27.8530000000	152
27.8830000000	130
27.9130000000	144
27.9430000000	157
27.9730000000	126
28.0030000000	155
28.0330000000	153
28.0630000000	164
28.0930000000	191
28.1230000000	199
28.1530000000	211
28.1830000000	195
28.2130000000	248
28.2430000000	239
28.2730000000	232
28.3030000000	169
28.3330000000	163
28.3630000000	161
28.3930000000	168
28.4230000000	153
28.4530000000	136
28.4830000000	124
28.5130000000	122
28.5430000000	131
28.5730000000	127
28.6030000000	132
28.6330000000	136
28.6630000000	124
28.6930000000	134
28.7230000000	129
28.7530000000	117
28.7830000000	120
28.8130000000	132
28.8430000000	131
28.8730000000	121
28.9030000000	132
28.9330000000	135
28.9630000000	126
28.9930000000	158
29.0230000000	123
29.0530000000	123
29.0830000000	114
29.1130000000	117
29.1430000000	120
29.1730000000	119
29.2030000000	128
29.2330000000	138
29.2630000000	119
29.2930000000	122
29.3230000000	120
29.3530000000	116
29.3830000000	112
29.4130000000	134
29.4430000000	131
29.4730000000	126
29.5030000000	124
29.5330000000	117
29.5630000000	126
29.5930000000	107
29.6230000000	147
29.6530000000	128
29.6830000000	128
29.7130000000	117
29.7430000000	122
29.7730000000	140
29.8030000000	136
29.8330000000	107
29.8630000000	107
29.8930000000	129
29.9230000000	103
29.9530000000	120
29.9830000000	123
30.0130000000	123
30.0430000000	119
30.0730000000	109
30.1030000000	119
30.1330000000	133
30.1630000000	122
30.1930000000	106
30.2230000000	123
30.2530000000	114
30.2830000000	117
30.3130000000	119
30.3430000000	119
30.3730000000	130
30.4030000000	131
30.4330000000	111
30.4630000000	120
30.4930000000	115
30.5230000000	135
30.5530000000	115
30.5830000000	126
30.6130000000	106
30.6430000000	126
30.6730000000	120
30.7030000000	149
30.7330000000	116
30.7630000000	106
30.7930000000	116
30.8230000000	103
30.8530000000	116
30.8830000000	127
30.9130000000	114
30.9430000000	116
30.9730000000	113
31.0030000000	107
31.0330000000	106
31.0630000000	108
31.0930000000	120
31.1230000000	120
31.1530000000	115
31.1830000000	118
31.2130000000	133
31.2430000000	137
31.2730000000	109
31.3030000000	116
31.3330000000	112
31.3630000000	92
31.3930000000	110
31.4230000000	116
31.4530000000	102
31.4830000000	103
31.5130000000	128
31.5430000000	110
31.5730000000	134
31.6030000000	130
31.6330000000	113
31.6630000000	104
31.6930000000	106
31.7230000000	113
31.7530000000	102
31.7830000000	99
31.8130000000	107
31.8430000000	108
31.8730000000	116
31.9030000000	111
31.9330000000	99
31.9630000000	98
31.9930000000	91
32.0230000000	101
32.0530000000	111
32.0830000000	104
32.1130000000	97
32.1430000000	112
32.1730000000	100
32.2030000000	101
32.2330000000	121
32.2630000000	102
32.2930000000	96
32.3230000000	124
32.3530000000	98
32.3830000000	107
32.4130000000	126
32.4430000000	103
32.4730000000	116
32.5030000000	112
32.5330000000	78
32.5630000000	101
32.5930000000	115
32.6230000000	102
32.6530000000	106
32.6830000000	115
32.7130000000	116
32.7430000000	107
32.7730000000	107
32.8030000000	107
32.8330000000	102
32.8630000000	98
32.8930000000	93
32.9230000000	101
32.9530000000	107
32.9830000000	107
33.0130000000	121
33.0430000000	125
33.0730000000	96
33.1030000000	111
33.1330000000	116
33.1630000000	125
33.1930000000	117
33.2230000000	149
33.2530000000	143
33.2830000000	154
33.3130000000	155
33.3430000000	161
33.3730000000	207
33.4030000000	305
33.4330000000	499
33.4630000000	762
33.4930000000	1248
33.5230000000	1872
33.5530000000	2799
33.5830000000	4263
33.6130000000	4977
33.6430000000	4638
33.6730000000	3474
33.7030000000	2222
33.7330000000	1353
33.7630000000	786
33.7930000000	479
33.8230000000	314
33.8530000000	222
33.8830000000	172
33.9130000000	134
33.9430000000	151
33.9730000000	124
34.0030000000	116
34.0330000000	142
34.0630000000	119
34.0930000000	113
34.1230000000	106
34.1530000000	112
34.1830000000	119
34.2130000000	105
34.2430000000	109
34.2730000000	97
34.3030000000	101
34.3330000000	105
34.3630000000	115
34.3930000000	123
34.4230000000	102
34.4530000000	98
34.4830000000	99
34.5130000000	92
34.5430000000	103
34.5730000000	99
34.6030000000	94
34.6330000000	98
34.6630000000	100
34.6930000000	94
34.7230000000	101
34.7530000000	109
34.7830000000	87
34.8130000000	105
34.8430000000	87
34.8730000000	90
34.9030000000	103
34.9330000000	94
34.9630000000	95
34.9930000000	92
35.0230000000	88
35.0530000000	92
35.0830000000	79
35.1130000000	86
35.1430000000	88
35.1730000000	93
35.2030000000	85
35.2330000000	107
35.2630000000	95
35.2930000000	88
35.3230000000	98
35.3530000000	102
35.3830000000	105
35.4130000000	100
35.4430000000	113
35.4730000000	93
35.5030000000	85
35.5330000000	87
35.5630000000	86
35.5930000000	80
35.6230000000	102
35.6530000000	89
35.6830000000	69
35.7130000000	90
35.7430000000	104
35.7730000000	95
35.8030000000	83
35.8330000000	103
35.8630000000	89
35.8930000000	88
35.9230000000	97
35.9530000000	109
35.9830000000	101
36.0130000000	121
36.0430000000	128
36.0730000000	162
36.1030000000	208
36.1330000000	282
36.1630000000	290
36.1930000000	316
36.2230000000	294
36.2530000000	248
36.2830000000	208
36.3130000000	163
36.3430000000	152
36.3730000000	120
36.4030000000	90
36.4330000000	90
36.4630000000	105
36.4930000000	97
36.5230000000	87
36.5530000000	93
36.5830000000	92
36.6130000000	95
36.6430000000	92
36.6730000000	87
36.7030000000	80
36.7330000000	93
36.7630000000	89
36.7930000000	85
36.8230000000	89
36.8530000000	103
36.8830000000	94
36.9130000000	88
36.9430000000	99
36.9730000000	100
37.0030000000	95
37.0330000000	98
37.0630000000	93
37.0930000000	87
37.1230000000	70
37.1530000000	70
37.1830000000	96
37.2130000000	97
37.2430000000	96
37.2730000000	95
37.3030000000	97
37.3330000000	87
37.3630000000	110
37.3930000000	94
37.4230000000	90
37.4530000000	77
37.4830000000	94
37.5130000000	99
37.5430000000	98
37.5730000000	92
37.6030000000	100
37.6330000000	99
37.6630000000	110
37.6930000000	105
37.7230000000	134
37.7530000000	146
37.7830000000	129
37.8130000000	136
37.8430000000	202
37.8730000000	283
37.9030000000	377
37.9330000000	541
37.9630000000	906
37.9930000000	1286
38.0230000000	1844
38.0530000000	2582
38.0830000000	2877
38.1130000000	2794
38.1430000000	2413
38.1730000000	1826
38.2030000000	1304
38.2330000000	841
38.2630000000	550
38.2930000000	362
38.3230000000	235
38.3530000000	190
38.3830000000	156
38.4130000000	125
38.4430000000	118
38.4730000000	109
38.5030000000	117
38.5330000000	122
38.5630000000	96
38.5930000000	98
38.6230000000	105
38.6530000000	102
38.6830000000	104
38.7130000000	94
38.7430000000	84
38.7730000000	80
38.8030000000	101
38.8330000000	96
38.8630000000	94
38.8930000000	97
38.9230000000	88
38.9530000000	98
38.9830000000	100
39.0130000000	98
39.0430000000	80
39.0730000000	76
39.1030000000	84
39.1330000000	87
39.1630000000	97
39.1930000000	86
39.2230000000	87
39.2530000000	86
39.2830000000	91
39.3130000000	88
39.3430000000	84
39.3730000000	92
39.4030000000	90
39.4330000000	69
39.4630000000	87
39.4930000000	75
39.5230000000	78
39.5530000000	86
39.5830000000	82
39.6130000000	84
39.6430000000	76
39.6730000000	74
39.7030000000	95
39.7330000000	82
39.7630000000	69
39.7930000000	85
39.8230000000	70
39.8530000000	72
39.8830000000	84
39.9130000000	79
39.9430000000	72
39.9730000000	74
40.0030000000	83
40.0330000000	84
40.0630000000	85
40.0930000000	78
40.1230000000	89
40.1530000000	80
40.1830000000	78
40.2130000000	96
40.2430000000	62
40.2730000000	91
40.3030000000	90
40.3330000000	78
40.3630000000	81
40.3930000000	76
40.4230000000	79
40.4530000000	81
40.4830000000	87
40.5130000000	92
40.5430000000	77
40.5730000000	68
40.6030000000	77
40.6330000000	67
40.6630000000	81
40.6930000000	69
40.7230000000	92
40.7530000000	81
40.7830000000	69
40.8130000000	84
40.8430000000	67
40.8730000000	86
40.9030000000	76
40.9330000000	73
40.9630000000	84
40.9930000000	88
41.0230000000	79
41.0530000000	79
41.0830000000	91
41.1130000000	75
41.1430000000	79
41.1730000000	74
41.2030000000	85
41.2330000000	73
41.2630000000	63
41.2930000000	86
41.3230000000	87
41.3530000000	86
41.3830000000	76
41.4130000000	82
41.4430000000	84
41.4730000000	80
41.5030000000	91
41.5330000000	90
41.5630000000	76
41.5930000000	85
41.6230000000	88
41.6530000000	79
41.6830000000	75
41.7130000000	83
41.7430000000	63
41.7730000000	76
41.8030000000	92
41.8330000000	74
41.8630000000	98
41.8930000000	91
41.9230000000	94
41.9530000000	100
41.9830000000	103
42.0130000000	119
42.0430000000	159
42.0730000000	217
42.1030000000	250
42.1330000000	289
42.1630000000	289
42.1930000000	253
42.2230000000	235
42.2530000000	206
42.2830000000	133
42.3130000000	117
42.3430000000	117
42.3730000000	101
42.4030000000	92
42.4330000000	100
42.4630000000	109
42.4930000000	99
42.5230000000	92
42.5530000000	92
42.5830000000	86
42.6130000000	75
42.6430000000	82
42.6730000000	88
42.7030000000	79
42.7330000000	67
42.7630000000	70
42.7930000000	88
42.8230000000	82
42.8530000000	78
42.8830000000	86
42.9130000000	63
42.9430000000	78
42.9730000000	69
43.0030000000	56
43.0330000000	84
43.0630000000	94
43.0930000000	76
43.1230000000	69
43.1530000000	79
43.1830000000	74
43.2130000000	66
43.2430000000	75
43.2730000000	77
43.3030000000	78
43.3330000000	74
43.3630000000	75
43.3930000000	66
43.4230000000	84
43.4530000000	63
43.4830000000	70
43.5130000000	76
43.5430000000	76
43.5730000000	88
43.6030000000	76
43.6330000000	89
43.6630000000	110
43.6930000000	134
43.7230000000	143
43.7530000000	185
43.7830000000	241
43.8130000000	222
43.8430000000	233
43.8730000000	229
43.9030000000	193
43.9330000000	180
43.9630000000	141
43.9930000000	136
44.0230000000	87
44.0530000000	92
44.0830000000	68
44.1130000000	84
44.1430000000	83
44.1730000000	74
44.2030000000	70
44.2330000000	69
44.2630000000	75
44.2930000000	65
44.3230000000	70
44.3530000000	80
44.3830000000	68
44.4130000000	58
44.4430000000	67
44.4730000000	65
44.5030000000	68
44.5330000000	77
44.5630000000	69
44.5930000000	81
44.6230000000	66
44.6530000000	67
44.6830000000	70
44.7130000000	60
44.7430000000	65
44.7730000000	55
44.8030000000	62
44.8330000000	59
44.8630000000	70
44.8930000000	62
44.9230000000	67
44.9530000000	72
44.9830000000	80
45.0130000000	63
45.0430000000	79
45.0730000000	51
45.1030000000	76
45.1330000000	81
45.1630000000	70
45.1930000000	64
45.2230000000	65
45.2530000000	53
45.2830000000	66
45.3130000000	62
45.3430000000	77
45.3730000000	61
45.4030000000	68
45.4330000000	68
45.4630000000	62
45.4930000000	62
45.5230000000	75
45.5530000000	62
45.5830000000	60
45.6130000000	62
45.6430000000	68
45.6730000000	66
45.7030000000	62
45.7330000000	67
45.7630000000	72
45.7930000000	75
45.8230000000	58
45.8530000000	80
45.8830000000	56
45.9130000000	64
45.9430000000	75
45.9730000000	70
46.0030000000	59
46.0330000000	74
46.0630000000	73
46.0930000000	68
46.1230000000	74
46.1530000000	79
46.1830000000	65
46.2130000000	97
46.2430000000	86
46.2730000000	93
46.3030000000	106
46.3330000000	150
46.3630000000	190
46.3930000000	236
46.4230000000	344
46.4530000000	527
46.4830000000	641
46.5130000000	797
46.5430000000	838
46.5730000000	776
46.6030000000	698
46.6330000000	641
46.6630000000	474
46.6930000000	454
46.7230000000	446
46.7530000000	535
46.7830000000	599
46.8130000000	610
46.8430000000	653
46.8730000000	510
46.9030000000	457
46.9330000000	348
46.9630000000	276
46.9930000000	192
47.0230000000	147
47.0530000000	97
47.0830000000	106
47.1130000000	102
47.1430000000	84
47.1730000000	77
47.2030000000	63
47.2330000000	58
47.2630000000	56
47.2930000000	63
47.3230000000	67
47.3530000000	67
47.3830000000	52
47.4130000000	75
47.4430000000	60
47.4730000000	72
47.5030000000	65
47.5330000000	66
47.5630000000	73
47.5930000000	69
47.6230000000	59
47.6530000000	49
47.6830000000	76
47.7130000000	57
47.7430000000	65
47.7730000000	55
47.8030000000	59
47.8330000000	61
47.8630000000	60
47.8930000000	53
47.9230000000	56
47.9530000000	67
47.9830000000	62
48.0130000000	62
48.0430000000	66
48.0730000000	59
48.1030000000	51
48.1330000000	59
48.1630000000	53
48.1930000000	69
48.2230000000	52
48.2530000000	54
48.2830000000	65
48.3130000000	67
48.3430000000	65
48.3730000000	61
48.4030000000	74
48.4330000000	66
48.4630000000	62
48.4930000000	62
48.5230000000	57
48.5530000000	57
48.5830000000	43
48.6130000000	51
48.6430000000	49
48.6730000000	51
48.7030000000	50
48.7330000000	51
48.7630000000	60
48.7930000000	62
48.8230000000	58
48.8530000000	50
48.8830000000	45
48.9130000000	54
48.9430000000	61
48.9730000000	57
49.0030000000	61
49.0330000000	61
49.0630000000	49
49.0930000000	72
49.1230000000	53
49.1530000000	70
49.1830000000	57
49.2130000000	60
49.2430000000	47
49.2730000000	51
49.3030000000	55
49.3330000000	44
49.3630000000	49
49.3930000000	58
49.4230000000	54
49.4530000000	55
49.4830000000	45
49.5130000000	47
49.5430000000	57
49.5730000000	66
49.6030000000	49
49.6330000000	49
49.6630000000	54
49.6930000000	54
49.7230000000	41
49.7530000000	65
49.7830000000	39
49.8130000000	54
49.8430000000	50
49.8730000000	58
49.9030000000	63
49.9330000000	55
49.9630000000	54
49.9930000000	63
50.0230000000	54
50.0530000000	44
50.0830000000	46
50.1130000000	54
50.1430000000	42
50.1730000000	48
50.2030000000	57
50.2330000000	59
50.2630000000	66
50.2930000000	62
50.3230000000	53
50.3530000000	57
50.3830000000	72
50.4130000000	72
50.4430000000	104
50.4730000000	117
50.5030000000	110
50.5330000000	109
50.5630000000	109
50.5930000000	91
50.6230000000	83
50.6530000000	68
50.6830000000	64
50.7130000000	67
50.7430000000	55
50.7730000000	56
50.8030000000	53
50.8330000000	46
50.8630000000	60
50.8930000000	55
50.9230000000	56
50.9530000000	55
50.9830000000	51
51.0130000000	52
51.0430000000	42
51.0730000000	38
51.1030000000	50
51.1330000000	55
51.1630000000	52
51.1930000000	48
51.2230000000	44
51.2530000000	41
51.2830000000	53
51.3130000000	42
51.3430000000	49
51.3730000000	52
51.4030000000	38
51.4330000000	56
51.4630000000	60
51.4930000000	56
51.5230000000	53
51.5530000000	43
51.5830000000	46
51.6130000000	44
51.6430000000	38
51.6730000000	45
51.7030000000	49
51.7330000000	51
51.7630000000	55
51.7930000000	47
51.8230000000	51
51.8530000000	44
51.8830000000	41
51.9130000000	44
51.9430000000	42
51.9730000000	47
52.0030000000	57
52.0330000000	59
52.0630000000	50
52.0930000000	48
52.1230000000	35
52.1530000000	48
52.1830000000	51
52.2130000000	48
52.2430000000	40
52.2730000000	57
52.3030000000	46
52.3330000000	51
52.3630000000	51
52.3930000000	36
52.4230000000	54
52.4530000000	54
52.4830000000	52
52.5130000000	43
52.5430000000	59
52.5730000000	47
52.6030000000	33
52.6330000000	59
52.6630000000	63
52.6930000000	44
52.7230000000	47
52.7530000000	52
52.7830000000	46
52.8130000000	55
52.8430000000	43
52.8730000000	47
52.9030000000	47
52.9330000000	48
52.9630000000	43
52.9930000000	51
53.0230000000	42
53.0530000000	50
53.0830000000	45
53.1130000000	43
53.1430000000	46
53.1730000000	58
53.2030000000	56
53.2330000000	44
53.2630000000	54
53.2930000000	55
53.3230000000	48
53.3530000000	56
53.3830000000	65
53.4130000000	65
53.4430000000	67
53.4730000000	79
53.5030000000	99
53.5330000000	126
53.5630000000	109
53.5930000000	97
53.6230000000	94
53.6530000000	73
53.6830000000	73
53.7130000000	78
53.7430000000	63
53.7730000000	55
53.8030000000	48
53.8330000000	48
53.8630000000	53
53.8930000000	54
53.9230000000	45
53.9530000000	39
53.9830000000	46
54.0130000000	44
54.0430000000	46
54.0730000000	49
54.1030000000	46
54.1330000000	41
54.1630000000	50
54.1930000000	50
54.2230000000	41
54.2530000000	48
54.2830000000	59
54.3130000000	56
54.3430000000	50
54.3730000000	55
54.4030000000	43
54.4330000000	38
54.4630000000	38
54.4930000000	39
54.5230000000	32
54.5530000000	40
54.5830000000	48
54.6130000000	43
54.6430000000	38
54.6730000000	56
54.7030000000	44
54.7330000000	52
54.7630000000	50
54.7930000000	39
54.8230000000	52
54.8530000000	34
54.8830000000	43
54.9130000000	48
54.9430000000	37
54.9730000000	44
55.0030000000	48
55.0330000000	58
55.0630000000	44
55.0930000000	51
55.1230000000	45
55.1530000000	47
55.1830000000	51
55.2130000000	51
55.2430000000	39
55.2730000000	38
55.3030000000	38
55.3330000000	43
55.3630000000	48
55.3930000000	44
55.4230000000	50
55.4530000000	42
55.4830000000	42
55.5130000000	53
55.5430000000	40
55.5730000000	46
55.6030000000	38
55.6330000000	40
55.6630000000	45
55.6930000000	51
55.7230000000	40
55.7530000000	49
55.7830000000	53
55.8130000000	34
55.8430000000	50
55.8730000000	49
55.9030000000	37
55.9330000000	49
55.9630000000	44
55.9930000000	47
56.0230000000	36
56.0530000000	54
56.0830000000	45
56.1130000000	37
56.1430000000	55
56.1730000000	35
56.2030000000	50
56.2330000000	42
56.2630000000	42
56.2930000000	53
56.3230000000	32
56.3530000000	47
56.3830000000	50
56.4130000000	42
56.4430000000	38
56.4730000000	40
56.5030000000	40
56.5330000000	37
56.5630000000	36
56.5930000000	48
56.6230000000	34
56.6530000000	45
56.6830000000	52
56.7130000000	38
56.7430000000	46
56.7730000000	44
56.8030000000	47
56.8330000000	47
56.8630000000	34
56.8930000000	32
56.9230000000	46
56.9530000000	46
56.9830000000	34
57.0130000000	43
57.0430000000	44
57.0730000000	35
57.1030000000	39
57.1330000000	50
57.1630000000	49
57.1930000000	34
57.2230000000	44
57.2530000000	38
57.2830000000	47
57.3130000000	43
57.3430000000	39
57.3730000000	42
57.4030000000	40
57.4330000000	44
57.4630000000	41
57.4930000000	34
57.5230000000	39
57.5530000000	42
57.5830000000	40
57.6130000000	47
57.6430000000	44
57.6730000000	53
57.7030000000	48
57.7330000000	44
57.7630000000	45
57.7930000000	51
57.8230000000	53
57.8530000000	53
57.8830000000	54
57.9130000000	50
57.9430000000	43
57.9730000000	52
58.0030000000	58
58.0330000000	68
58.0630000000	74
58.0930000000	81
58.1230000000	98
58.1530000000	82
58.1830000000	75
58.2130000000	64
58.2430000000	87
58.2730000000	61
58.3030000000	67
58.3330000000	64
58.3630000000	46
58.3930000000	50
58.4230000000	54
58.4530000000	48
58.4830000000	39
58.5130000000	51
58.5430000000	49
58.5730000000	35
58.6030000000	49
58.6330000000	44
58.6630000000	38
58.6930000000	38
58.7230000000	36
58.7530000000	41
58.7830000000	44
58.8130000000	39
58.8430000000	34
58.8730000000	39
58.9030000000	42
58.9330000000	38
58.9630000000	43
58.9930000000	45
59.0230000000	57
59.0530000000	47
59.0830000000	64
59.1130000000	71
59.1430000000	73
59.1730000000	63
59.2030000000	64
59.2330000000	61
59.2630000000	62
59.2930000000	62
59.3230000000	57
59.3530000000	45
59.3830000000	45
59.4130000000	40
59.4430000000	49
59.4730000000	45
59.5030000000	46
59.5330000000	35
59.5630000000	31
59.5930000000	42
59.6230000000	38
59.6530000000	48
59.6830000000	47
59.7130000000	36
59.7430000000	40
59.7730000000	54
59.8030000000	40
59.8330000000	62
59.8630000000	67
59.8930000000	93
59.9230000000	109
59.9530000000	101
59.9830000000	105
60.0130000000	116
60.0430000000	104
60.0730000000	96
60.1030000000	93
60.1330000000	90
60.1630000000	77
60.1930000000	64
60.2230000000	59
60.2530000000	52
60.2830000000	51
60.3130000000	50
60.3430000000	47
60.3730000000	53
60.4030000000	49
60.4330000000	47
60.4630000000	49
60.4930000000	56
60.5230000000	54
60.5530000000	60
60.5830000000	58
60.6130000000	54
60.6430000000	46
60.6730000000	40
60.7030000000	47
60.7330000000	42
60.7630000000	43
60.7930000000	46
60.8230000000	44
60.8530000000	46
60.8830000000	38
60.9130000000	46
60.9430000000	37
60.9730000000	39
61.0030000000	57
61.0330000000	36
61.0630000000	50
61.0930000000	38
61.1230000000	36
61.1530000000	44
61.1830000000	44
61.2130000000	50
61.2430000000	34
61.2730000000	38
61.3030000000	42
61.3330000000	42
61.3630000000	31
61.3930000000	29
61.4230000000	33
61.4530000000	42
61.4830000000	50
61.5130000000	44
61.5430000000	50
61.5730000000	48
61.6030000000	43
61.6330000000	47
61.6630000000	53
61.6930000000	56
61.7230000000	78
61.7530000000	81
61.7830000000	70
61.8130000000	75
61.8430000000	80
61.8730000000	69
61.9030000000	76
61.9330000000	58
61.9630000000	49
61.9930000000	43
62.0230000000	44
62.0530000000	41
62.0830000000	35
62.1130000000	49
62.1430000000	50
62.1730000000	32
62.2030000000	46
62.2330000000	41
62.2630000000	42
62.2930000000	40
62.3230000000	33
62.3530000000	34
62.3830000000	42
62.4130000000	38
62.4430000000	33
62.4730000000	42
62.5030000000	39
62.5330000000	39
62.5630000000	36
62.5930000000	49
62.6230000000	39
62.6530000000	46
62.6830000000	37
62.7130000000	39
62.7430000000	41
62.7730000000	48
62.8030000000	44
62.8330000000	33
62.8630000000	31
62.8930000000	29
62.9230000000	31
62.9530000000	41
62.9830000000	36
63.0130000000	37
63.0430000000	39
63.0730000000	36
63.1030000000	36
63.1330000000	41
63.1630000000	49
63.1930000000	39
63.2230000000	42
63.2530000000	51
63.2830000000	49
63.3130000000	43
63.3430000000	37
63.3730000000	44
63.4030000000	55
63.4330000000	47
63.4630000000	35
63.4930000000	43
63.5230000000	48
63.5530000000	44
63.5830000000	41
63.6130000000	47
63.6430000000	57
63.6730000000	45
63.7030000000	38
63.7330000000	27
63.7630000000	45
63.7930000000	40
63.8230000000	51
63.8530000000	54
63.8830000000	36
63.9130000000	47
63.9430000000	42
63.9730000000	27
64.0030000000	42
64.0330000000	43
64.0630000000	44
64.0930000000	42
64.1230000000	41
64.1530000000	41
64.1830000000	29
64.2130000000	25
64.2430000000	42
64.2730000000	42
64.3030000000	32
64.3330000000	35
64.3630000000	33
64.3930000000	40
64.4230000000	33
64.4530000000	49
64.4830000000	48
64.5130000000	40
64.5430000000	30
64.5730000000	40
64.6030000000	49
64.6330000000	28
64.6630000000	34
64.6930000000	42
64.7230000000	45
64.7530000000	41
64.7830000000	39
64.8130000000	41
64.8430000000	43
64.8730000000	44
64.9030000000	52
64.9330000000	32
64.9630000000	51
64.9930000000	42
65.0230000000	49
65.0530000000	42
65.0830000000	49
65.1130000000	33
65.1430000000	40
65.1730000000	38
65.2030000000	35
65.2330000000	36
65.2630000000	41
65.2930000000	39
65.3230000000	39
65.3530000000	41
65.3830000000	54
65.4130000000	44
65.4430000000	40
65.4730000000	51
65.5030000000	45
65.5330000000	37
65.5630000000	32
65.5930000000	40
65.6230000000	46
65.6530000000	39
65.6830000000	45
65.7130000000	51
65.7430000000	54
65.7730000000	67
65.8030000000	87
65.8330000000	127
65.8630000000	133
65.8930000000	133
65.9230000000	128
65.9530000000	105
65.9830000000	129
66.0130000000	116
66.0430000000	114
66.0730000000	111
66.1030000000	81
66.1330000000	83
66.1630000000	71
66.1930000000	64
66.2230000000	56
66.2530000000	54
66.2830000000	50
66.3130000000	44
66.3430000000	28
66.3730000000	52
66.4030000000	55
66.4330000000	37
66.4630000000	37
66.4930000000	43
66.5230000000	45
66.5530000000	40
66.5830000000	36
66.6130000000	38
66.6430000000	37
66.6730000000	32
66.7030000000	39
66.7330000000	50
66.7630000000	33
66.7930000000	39
66.8230000000	40
66.8530000000	44
66.8830000000	50
66.9130000000	41
66.9430000000	49
66.9730000000	52
67.0030000000	34
67.0330000000	41
67.0630000000	43
67.0930000000	36
67.1230000000	35
67.1530000000	39
67.1830000000	45
67.2130000000	42
67.2430000000	27
67.2730000000	27
67.3030000000	36
67.3330000000	42
67.3630000000	45
67.3930000000	44
67.4230000000	43
67.4530000000	34
67.4830000000	50
67.5130000000	38
67.5430000000	27
67.5730000000	43
67.6030000000	44
67.6330000000	43
67.6630000000	39
67.6930000000	40
67.7230000000	41
67.7530000000	44
67.7830000000	39
67.8130000000	40
67.8430000000	39
67.8730000000	31
67.9030000000	33
67.9330000000	37
67.9630000000	41
67.9930000000	44
68.0230000000	39
68.0530000000	34
68.0830000000	26
68.1130000000	44
68.1430000000	36
68.1730000000	34
68.2030000000	38
68.2330000000	38
68.2630000000	42
68.2930000000	45
68.3230000000	34
68.3530000000	37
68.3830000000	43
68.4130000000	40
68.4430000000	46
68.4730000000	42
68.5030000000	35
68.5330000000	44
68.5630000000	34
68.5930000000	52
68.6230000000	28
68.6530000000	38
68.6830000000	52
68.7130000000	42
68.7430000000	49
68.7730000000	59
68.8030000000	70
68.8330000000	77
68.8630000000	76
68.8930000000	100
68.9230000000	104
68.9530000000	74
68.9830000000	90
69.0130000000	85
69.0430000000	80
69.0730000000	73
69.1030000000	93
69.1330000000	81
69.1630000000	69
69.1930000000	67
69.2230000000	62
69.2530000000	56
69.2830000000	75
69.3130000000	79
69.3430000000	50
69.3730000000	59
69.4030000000	47
69.4330000000	43
69.4630000000	46
69.4930000000	38
69.5230000000	46
69.5530000000	48
69.5830000000	41
69.6130000000	32
69.6430000000	36
69.6730000000	44
69.7030000000	36
69.7330000000	36
69.7630000000	42
69.7930000000	44
69.8230000000	44
69.8530000000	43
69.8830000000	41
69.9130000000	50
69.9430000000	52
69.9730000000	36
70.0030000000	40
70.0330000000	37
70.0630000000	40
70.0930000000	36
70.1230000000	27
70.1530000000	45
70.1830000000	40
70.2130000000	34
70.2430000000	40
70.2730000000	46
70.3030000000	35
70.3330000000	37
70.3630000000	48
70.3930000000	47
70.4230000000	41
70.4530000000	38
70.4830000000	30
70.5130000000	40
70.5430000000	37
70.5730000000	39
70.6030000000	41
70.6330000000	33
70.6630000000	38
70.6930000000	41
70.7230000000	37
70.7530000000	40
70.7830000000	37
70.8130000000	31
70.8430000000	33
70.8730000000	38
70.9030000000	46
70.9330000000	41
70.9630000000	36
70.9930000000	40
71.0230000000	42
71.0530000000	46
71.0830000000	41
71.1130000000	36
71.1430000000	37
71.1730000000	38
71.2030000000	38
71.2330000000	45
71.2630000000	43
71.2930000000	36
71.3230000000	36
71.3530000000	35
71.3830000000	47
71.4130000000	50
71.4430000000	44
71.4730000000	49
71.5030000000	34
71.5330000000	37
71.5630000000	31
71.5930000000	53
71.6230000000	40
71.6530000000	37
71.6830000000	38
71.7130000000	39
71.7430000000	37
71.7730000000	43
71.8030000000	31
71.8330000000	43
71.8630000000	41
71.8930000000	34
71.9230000000	47
71.9530000000	42
71.9830000000	34
72.0130000000	54
72.0430000000	39
72.0730000000	45
72.1030000000	34
72.1330000000	37
72.1630000000	45
72.1930000000	57
72.2230000000	60
72.2530000000	62
72.2830000000	72
72.3130000000	81
72.3430000000	77
72.3730000000	61
72.4030000000	62
72.4330000000	60
72.4630000000	49
72.4930000000	64
72.5230000000	53
72.5530000000	43
72.5830000000	49
72.6130000000	41
72.6430000000	40
72.6730000000	44
72.7030000000	43
72.7330000000	41
72.7630000000	30
72.7930000000	36
72.8230000000	46
72.8530000000	45
72.8830000000	44
72.9130000000	24
72.9430000000	30
72.9730000000	39
73.0030000000	47
73.0330000000	37
73.0630000000	45
73.0930000000	45
73.1230000000	44
73.1530000000	67
73.1830000000	53
73.2130000000	62
73.2430000000	69
73.2730000000	92
73.3030000000	81
73.3330000000	93
73.3630000000	81
73.3930000000	59
73.4230000000	61
73.4530000000	61
73.4830000000	55
73.5130000000	43
73.5430000000	47
73.5730000000	63
73.6030000000	47
73.6330000000	38
73.6630000000	45
73.6930000000	43
73.7230000000	42
73.7530000000	44
73.7830000000	41
73.8130000000	43
73.8430000000	57
73.8730000000	33
73.9030000000	38
73.9330000000	43
73.9630000000	41
73.9930000000	35
74.0230000000	40
74.0530000000	40
74.0830000000	43
74.1130000000	44
74.1430000000	45
74.1730000000	41
74.2030000000	35
74.2330000000	51
74.2630000000	38
74.2930000000	48
74.3230000000	56
74.3530000000	41
74.3830000000	41
74.4130000000	33
74.4430000000	56
74.4730000000	44
74.5030000000	39
74.5330000000	41
74.5630000000	52
74.5930000000	52
74.6230000000	48
74.6530000000	49
74.6830000000	64
74.7130000000	66
74.7430000000	73
74.7730000000	102
74.8030000000	96
74.8330000000	107
74.8630000000	72
74.8930000000	74
74.9230000000	106
74.9530000000	105
74.9830000000	109
75.0130000000	95
75.0430000000	91
75.0730000000	72
75.1030000000	94
75.1330000000	76
75.1630000000	66
75.1930000000	59
75.2230000000	65
75.2530000000	64
75.2830000000	56
75.3130000000	50
75.3430000000	48
75.3730000000	52
75.4030000000	42
75.4330000000	35
75.4630000000	53
75.4930000000	47
75.5230000000	46
75.5530000000	54
75.5830000000	39
75.6130000000	46
75.6430000000	53
75.6730000000	49
75.7030000000	50
75.7330000000	55
75.7630000000	51
75.7930000000	46
75.8230000000	49
75.8530000000	42
75.8830000000	34
75.9130000000	40
75.9430000000	46
75.9730000000	33
76.0030000000	36
76.0330000000	40
76.0630000000	39
76.0930000000	43
76.1230000000	44
76.1530000000	44
76.1830000000	56
76.2130000000	37
76.2430000000	40
76.2730000000	44
76.3030000000	45
76.3330000000	34
76.3630000000	34
76.3930000000	45
76.4230000000	55
76.4530000000	47
76.4830000000	32
76.5130000000	48
76.5430000000	37
76.5730000000	41
76.6030000000	35
76.6330000000	35
76.6630000000	42
76.6930000000	37
76.7230000000	44
76.7530000000	31
76.7830000000	47
76.8130000000	54
76.8430000000	69
76.8730000000	60
76.9030000000	60
76.9330000000	57
76.9630000000	58
76.9930000000	64
77.0230000000	51
77.0530000000	51
77.0830000000	39
77.1130000000	51
77.1430000000	48
77.1730000000	44
77.2030000000	41
77.2330000000	41
77.2630000000	41
77.2930000000	37
77.3230000000	26
77.3530000000	42
77.3830000000	35
77.4130000000	56
77.4430000000	51
77.4730000000	56
77.5030000000	61
77.5330000000	43
77.5630000000	49
77.5930000000	40
77.6230000000	49
77.6530000000	55
77.6830000000	58
77.7130000000	40
77.7430000000	50
77.7730000000	40
77.8030000000	41
77.8330000000	36
77.8630000000	46
77.8930000000	37
77.9230000000	40
77.9530000000	29
77.9830000000	28
78.0130000000	34
78.0430000000	36
78.0730000000	29
78.1030000000	30
78.1330000000	33
78.1630000000	36
78.1930000000	51
78.2230000000	38
78.2530000000	42
78.2830000000	41
78.3130000000	36
78.3430000000	38
78.3730000000	39
78.4030000000	28
78.4330000000	34
78.4630000000	25
78.4930000000	45
78.5230000000	45
78.5530000000	33
78.5830000000	43
78.6130000000	31
78.6430000000	48
78.6730000000	47
78.7030000000	39
78.7330000000	45
78.7630000000	36
78.7930000000	39
78.8230000000	29
78.8530000000	44
78.8830000000	43
78.9130000000	35
78.9430000000	31
78.9730000000	42
79.0030000000	38
79.0330000000	38
79.0630000000	44
79.0930000000	34
79.1230000000	36
79.1530000000	46
79.1830000000	39
79.2130000000	36
79.2430000000	40
79.2730000000	38
79.3030000000	41
79.3330000000	33
79.3630000000	38
79.3930000000	33
79.4230000000	34
79.4530000000	38
79.4830000000	49
79.5130000000	48
79.5430000000	40
79.5730000000	39
79.6030000000	26
79.6330000000	29
79.6630000000	28
79.6930000000	46
79.7230000000	38
79.7530000000	31
79.7830000000	36
79.8130000000	48
79.8430000000	38
79.8730000000	35
79.9030000000	32
79.9330000000	42
79.9630000000	34
79.9930000000	46
80.0230000000	42
80.0530000000	31
80.0830000000	41
80.1130000000	20
80.1430000000	34
80.1730000000	31
80.2030000000	39
80.2330000000	35
80.2630000000	40
80.2930000000	45
80.3230000000	31
80.3530000000	34
80.3830000000	44
80.4130000000	44
80.4430000000	43
80.4730000000	29
80.5030000000	35
80.5330000000	49
80.5630000000	37
80.5930000000	35
80.6230000000	33
80.6530000000	41
80.6830000000	57
80.7130000000	45
80.7430000000	45
80.7730000000	36
80.8030000000	48
80.8330000000	35
80.8630000000	39
80.8930000000	46
80.9230000000	29
80.9530000000	46
80.9830000000	36
81.0130000000	42
81.0430000000	32
81.0730000000	42
81.1030000000	55
81.1330000000	43
81.1630000000	27
81.1930000000	43
81.2230000000	55
81.2530000000	52
81.2830000000	55
81.3130000000	55
81.3430000000	72
81.3730000000	69
81.4030000000	76
81.4330000000	91
81.4630000000	94
81.4930000000	77
81.5230000000	79
81.5530000000	85
81.5830000000	67
81.6130000000	57
81.6430000000	68
81.6730000000	71
81.7030000000	66
81.7330000000	63
81.7630000000	50
81.7930000000	55
81.8230000000	47
81.8530000000	40
81.8830000000	38
81.9130000000	36
81.9430000000	46
81.9730000000	39
82.0030000000	34
82.0330000000	33
82.0630000000	29
82.0930000000	30
82.1230000000	32
82.1530000000	41
82.1830000000	38
82.2130000000	32
82.2430000000	37
82.2730000000	33
82.3030000000	30
82.3330000000	43
82.3630000000	45
82.3930000000	37
82.4230000000	30
82.4530000000	31
82.4830000000	36
82.5130000000	34
82.5430000000	28
82.5730000000	40
82.6030000000	42
82.6330000000	35
82.6630000000	39
82.6930000000	41
82.7230000000	42
82.7530000000	41
82.7830000000	30
82.8130000000	44
82.8430000000	38
82.8730000000	37
82.9030000000	40
82.9330000000	37
82.9630000000	27
82.9930000000	34
83.0230000000	42
83.0530000000	44
83.0830000000	55
83.1130000000	47
83.1430000000	45
83.1730000000	27
83.2030000000	44
83.2330000000	45
83.2630000000	40
83.2930000000	31
83.3230000000	25
83.3530000000	41
83.3830000000	34
83.4130000000	32
83.4430000000	47
83.4730000000	30
83.5030000000	48
83.5330000000	45
83.5630000000	35
83.5930000000	43
83.6230000000	47
83.6530000000	62
83.6830000000	59
83.7130000000	57
83.7430000000	48
83.7730000000	48
83.8030000000	44
83.8330000000	51
83.8630000000	63
83.8930000000	50
83.9230000000	62
83.9530000000	47
83.9830000000	43
84.0130000000	39
84.0430000000	42
84.0730000000	41
84.1030000000	32
84.1330000000	28
84.1630000000	49
84.1930000000	33
84.2230000000	46
84.2530000000	37
84.2830000000	29
84.3130000000	40
84.3430000000	31
84.3730000000	36
84.4030000000	37
84.4330000000	43
84.4630000000	39
84.4930000000	37
84.5230000000	38
84.5530000000	48
84.5830000000	39
84.6130000000	41
84.6430000000	37
84.6730000000	47
84.7030000000	45
84.7330000000	59
84.7630000000	74
84.7930000000	74
84.8230000000	74
84.8530000000	59
84.8830000000	66
84.9130000000	57
84.9430000000	55
84.9730000000	60
85.0030000000	53
85.0330000000	58
85.0630000000	63
85.0930000000	40
85.1230000000	40
85.1530000000	40
85.1830000000	47
85.2130000000	43
85.2430000000	45
85.2730000000	35
85.3030000000	34
85.3330000000	42
85.3630000000	34
85.3930000000	42
85.4230000000	30
85.4530000000	34
85.4830000000	41
85.5130000000	29
85.5430000000	32
85.5730000000	24
85.6030000000	41
85.6330000000	37
85.6630000000	36
85.6930000000	39
85.7230000000	36
85.7530000000	36
85.7830000000	32
85.8130000000	39
85.8430000000	37
85.8730000000	33
85.9030000000	27
85.9330000000	37
85.9630000000	42
85.9930000000	40
86.0230000000	43
86.0530000000	31
86.0830000000	31
86.1130000000	29
86.1430000000	26
86.1730000000	28
86.2030000000	31
86.2330000000	26
86.2630000000	46
86.2930000000	39
86.3230000000	37
86.3530000000	43
86.3830000000	34
86.4130000000	41
86.4430000000	39
86.4730000000	34
86.5030000000	41
86.5330000000	35
86.5630000000	38
86.5930000000	30
86.6230000000	41
86.6530000000	29
86.6830000000	31
86.7130000000	29
86.7430000000	41
86.7730000000	42
86.8030000000	35
86.8330000000	29
86.8630000000	29
86.8930000000	30
86.9230000000	36
86.9530000000	32
86.9830000000	31
87.0130000000	36
87.0430000000	40
87.0730000000	45
87.1030000000	37
87.1330000000	23
87.1630000000	36
87.1930000000	44
87.2230000000	33
87.2530000000	28
87.2830000000	34
87.3130000000	42
87.3430000000	25
87.3730000000	32
87.4030000000	34
87.4330000000	57
87.4630000000	40
87.4930000000	39
87.5230000000	42
87.5530000000	31
87.5830000000	41
87.6130000000	40
87.6430000000	32
87.6730000000	39
87.7030000000	43
87.7330000000	42
87.7630000000	32
87.7930000000	31
87.8230000000	36
87.8530000000	36
87.8830000000	35
87.9130000000	32
87.9430000000	35
87.9730000000	26
88.0030000000	32
88.0330000000	27
88.0630000000	33
88.0930000000	43
88.1230000000	39
88.1530000000	41
88.1830000000	52
88.2130000000	37
88.2430000000	40
88.2730000000	37
88.3030000000	37
88.3330000000	37
88.3630000000	28
88.3930000000	32
88.4230000000	38
88.4530000000	28
88.4830000000	35
88.5130000000	33
88.5430000000	33
88.5730000000	39
88.6030000000	35
88.6330000000	36
88.6630000000	35
88.6930000000	38
88.7230000000	34
88.7530000000	25
88.7830000000	35
88.8130000000	39
88.8430000000	36
88.8730000000	41
88.9030000000	37
88.9330000000	38
88.9630000000	35
88.9930000000	41
89.0230000000	43
89.0530000000	43
89.0830000000	44
89.1130000000	58
89.1430000000	47
89.1730000000	53
89.2030000000	58
89.2330000000	45
89.2630000000	38
89.2930000000	45
89.3230000000	42
89.3530000000	48
89.3830000000	41
89.4130000000	41
89.4430000000	40
89.4730000000	37
89.5030000000	44
89.5330000000	44
89.5630000000	50
89.5930000000	44
89.6230000000	41
89.6530000000	44
89.6830000000	46
89.7130000000	46
89.7430000000	46
89.7730000000	48
89.8030000000	42
89.8330000000	39
89.8630000000	41
89.8930000000	32
89.9230000000	38
89.9530000000	37
89.9830000000	34
90.0130000000	38
90.0430000000	44
90.0730000000	24
90.1030000000	33
90.1330000000	36
90.1630000000	33
90.1930000000	43
90.2230000000	35
90.2530000000	28
90.2830000000	36
90.3130000000	33
90.3430000000	41
90.3730000000	35
90.4030000000	38
90.4330000000	41
90.4630000000	45
90.4930000000	40
90.5230000000	39
90.5530000000	23
90.5830000000	40
90.6130000000	40
90.6430000000	33
90.6730000000	32
90.7030000000	42
90.7330000000	45
90.7630000000	36
90.7930000000	32
90.8230000000	39
90.8530000000	34
90.8830000000	45
90.9130000000	35
90.9430000000	34
90.9730000000	54
91.0030000000	41
91.0330000000	36
91.0630000000	27
91.0930000000	34
91.1230000000	23
91.1530000000	35
91.1830000000	35
91.2130000000	44
91.2430000000	41
91.2730000000	40
91.3030000000	32
91.3330000000	32
91.3630000000	45
91.3930000000	42
91.4230000000	34
91.4530000000	38
91.4830000000	46
91.5130000000	39
91.5430000000	37
91.5730000000	42
91.6030000000	38
91.6330000000	41
91.6630000000	39
91.6930000000	28
91.7230000000	42
91.7530000000	53
91.7830000000	40
91.8130000000	38
91.8430000000	30
91.8730000000	44
91.9030000000	47
91.9330000000	41
91.9630000000	35
91.9930000000	33
92.0230000000	46
92.0530000000	33
92.0830000000	33
92.1130000000	30
92.1430000000	34
92.1730000000	34
92.2030000000	45
92.2330000000	45
92.2630000000	44
92.2930000000	38
92.3230000000	53
92.3530000000	48
92.3830000000	36
92.4130000000	37
92.4430000000	45
92.4730000000	36
92.5030000000	39
92.5330000000	47
92.5630000000	42
92.5930000000	43
92.6230000000	36
92.6530000000	45
92.6830000000	47
92.7130000000	36
92.7430000000	41
92.7730000000	33
92.8030000000	39
92.8330000000	43
92.8630000000	39
92.8930000000	42
92.9230000000	31
92.9530000000	25
92.9830000000	45
93.0130000000	41
93.0430000000	32
93.0730000000	42
93.1030000000	42
93.1330000000	36
93.1630000000	40
93.1930000000	37
93.2230000000	36
93.2530000000	39
93.2830000000	35
93.3130000000	33
93.3430000000	31
93.3730000000	41
93.4030000000	32
93.4330000000	31
93.4630000000	36
93.4930000000	42
93.5230000000	37
93.5530000000	43
93.5830000000	35
93.6130000000	49
93.6430000000	36
93.6730000000	41
93.7030000000	40
93.7330000000	40
93.7630000000	42
93.7930000000	35
93.8230000000	57
93.8530000000	28
93.8830000000	33
93.9130000000	43
93.9430000000	44
93.9730000000	45
94.0030000000	38
94.0330000000	36
94.0630000000	49
94.0930000000	43
94.1230000000	43
94.1530000000	43
94.1830000000	35
94.2130000000	38
94.2430000000	43
94.2730000000	36
94.3030000000	49
94.3330000000	38
94.3630000000	46
94.3930000000	44
94.4230000000	62
94.4530000000	59
94.4830000000	69
94.5130000000	58
94.5430000000	58
94.5730000000	59
94.6030000000	53
94.6330000000	51
94.6630000000	47
94.6930000000	43
94.7230000000	44
94.7530000000	50
94.7830000000	55
94.8130000000	42
94.8430000000	41
94.8730000000	39
94.9030000000	25
94.9330000000	44
94.9630000000	52
94.9930000000	50
95.0230000000	47
95.0530000000	45
95.0830000000	39
95.1130000000	37
95.1430000000	44
95.1730000000	30
95.2030000000	47
95.2330000000	36
95.2630000000	38
95.2930000000	44
95.3230000000	35
95.3530000000	48
95.3830000000	47
95.4130000000	39
95.4430000000	37
95.4730000000	35
95.5030000000	42
95.5330000000	36
95.5630000000	40
95.5930000000	38
95.6230000000	41
95.6530000000	40
95.6830000000	37
95.7130000000	40
95.7430000000	47
95.7730000000	41
95.8030000000	37
95.8330000000	30
95.8630000000	35
95.8930000000	43
95.9230000000	43
95.9530000000	42
95.9830000000	41
96.0130000000	38
96.0430000000	35
96.0730000000	32
96.1030000000	34
96.1330000000	47
96.1630000000	42
96.1930000000	32
96.2230000000	32
96.2530000000	35
96.2830000000	39
96.3130000000	39
96.3430000000	33
96.3730000000	32
96.4030000000	37
96.4330000000	41
96.4630000000	38
96.4930000000	35
96.5230000000	44
96.5530000000	30
96.5830000000	34
96.6130000000	46
96.6430000000	36
96.6730000000	31
96.7030000000	28
96.7330000000	38
96.7630000000	39
96.7930000000	48
96.8230000000	35
96.8530000000	39
96.8830000000	33
96.9130000000	39
96.9430000000	38
96.9730000000	50
97.0030000000	37
97.0330000000	46
97.0630000000	40
97.0930000000	35
97.1230000000	35
97.1530000000	43
97.1830000000	55
97.2130000000	39
97.2430000000	34
97.2730000000	35
97.3030000000	35
97.3330000000	33
97.3630000000	34
97.3930000000	36
97.4230000000	32
97.4530000000	24
97.4830000000	29
97.5130000000	49
97.5430000000	32
97.5730000000	37
97.6030000000	36
97.6330000000	37
97.6630000000	46
97.6930000000	35
97.7230000000	33
97.7530000000	45
97.7830000000	34
97.8130000000	34
97.8430000000	33
97.8730000000	33
97.9030000000	41
97.9330000000	36
97.9630000000	29
97.9930000000	35
98.0230000000	39
98.0530000000	47
98.0830000000	35
98.1130000000	24
98.1430000000	39
98.1730000000	38
98.2030000000	40
98.2330000000	32
98.2630000000	39
98.2930000000	35
98.3230000000	37
98.3530000000	32
98.3830000000	35
98.4130000000	36
98.4430000000	35
98.4730000000	34
98.5030000000	32
98.5330000000	34
98.5630000000	39
98.5930000000	35
98.6230000000	37
98.6530000000	51
98.6830000000	52
98.7130000000	38
98.7430000000	35
98.7730000000	46
98.8030000000	49
98.8330000000	42
98.8630000000	41
98.8930000000	50
98.9230000000	43
98.9530000000	39
98.9830000000	44
99.0130000000	47
99.0430000000	49
99.0730000000	39
99.1030000000	40
99.1330000000	40
99.1630000000	35
99.1930000000	46
99.2230000000	32
99.2530000000	54
99.2830000000	26
99.3130000000	38
99.3430000000	34
99.3730000000	36
99.4030000000	41
99.4330000000	40
99.4630000000	39
99.4930000000	39
99.5230000000	48
99.5530000000	20
99.5830000000	30
99.6130000000	41
99.6430000000	38
99.6730000000	46
99.7030000000	34
99.7330000000	36
99.7630000000	29
99.7930000000	36
99.8230000000	34
99.8530000000	34
99.8830000000	29
99.9130000000	36
99.9430000000	35
99.9730000000	32
100.0030000000	32
100.0330000000	44
100.0630000000	33
100.0930000000	26
100.1230000000	40
100.1530000000	47
100.1830000000	41
100.2130000000	34
100.2430000000	39
100.2730000000	40
100.3030000000	33
100.3330000000	42
100.3630000000	36
100.3930000000	35
100.4230000000	34
100.4530000000	38
100.4830000000	42
100.5130000000	36
100.5430000000	33
100.5730000000	49
100.6030000000	42
100.6330000000	36
100.6630000000	33
100.6930000000	38
100.7230000000	31
100.7530000000	31
100.7830000000	38
100.8130000000	40
100.8430000000	33
100.8730000000	29
100.9030000000	38
100.9330000000	35
100.9630000000	34
100.9930000000	34
101.0230000000	31
101.0530000000	41
101.0830000000	33
101.1130000000	39
101.1430000000	36
101.1730000000	32
101.2030000000	32
101.2330000000	28
101.2630000000	38
101.2930000000	38
101.3230000000	30
101.3530000000	29
101.3830000000	38
101.4130000000	33
101.4430000000	34
101.4730000000	34
101.5030000000	41
101.5330000000	30
101.5630000000	33
101.5930000000	37
101.6230000000	32
101.6530000000	40
101.6830000000	47
101.7130000000	34
101.7430000000	28
101.7730000000	38
101.8030000000	33
101.8330000000	47
101.8630000000	31
101.8930000000	36
101.9230000000	31
101.9530000000	29
101.9830000000	39
102.0130000000	31
102.0430000000	39
102.0730000000	46
102.1030000000	33
102.1330000000	39
102.1630000000	36
102.1930000000	28
102.2230000000	35
102.2530000000	34
102.2830000000	28
102.3130000000	41
102.3430000000	29
102.3730000000	36
102.4030000000	46
102.4330000000	35
102.4630000000	43
102.4930000000	31
102.5230000000	26
102.5530000000	30
102.5830000000	28
102.6130000000	35
102.6430000000	44
102.6730000000	39
102.7030000000	45
102.7330000000	37
102.7630000000	31
102.7930000000	32
102.8230000000	31
102.8530000000	37
102.8830000000	47
102.9130000000	25
102.9430000000	38
102.9730000000	46
103.0030000000	33
103.0330000000	38
103.0630000000	27
103.0930000000	32
103.1230000000	37
103.1530000000	28
103.1830000000	31
103.2130000000	44
103.2430000000	39
103.2730000000	30
103.3030000000	32
103.3330000000	33
103.3630000000	36
103.3930000000	37
103.4230000000	43
103.4530000000	38
103.4830000000	34
103.5130000000	25
103.5430000000	32
103.5730000000	41
103.6030000000	34
103.6330000000	34
103.6630000000	38
103.6930000000	39
103.7230000000	42
103.7530000000	39
103.7830000000	34
103.8130000000	42
103.8430000000	53
103.8730000000	39
103.9030000000	20
103.9330000000	33
103.9630000000	47
103.9930000000	43
104.0230000000	48
104.0530000000	44
104.0830000000	49
104.1130000000	55
104.1430000000	36
104.1730000000	45
104.2030000000	44
104.2330000000	46
104.2630000000	39
104.2930000000	40
104.3230000000	47
104.3530000000	36
104.3830000000	40
104.4130000000	44
104.4430000000	45
104.4730000000	31
104.5030000000	30
104.5330000000	42
104.5630000000	50
104.5930000000	37
104.6230000000	40
104.6530000000	49
104.6830000000	42
104.7130000000	37
104.7430000000	30
104.7730000000	37
104.8030000000	38
104.8330000000	41
104.8630000000	47
104.8930000000	43
104.9230000000	37
104.9530000000	34
104.9830000000	48
105.0130000000	41
105.0430000000	33
105.0730000000	35
105.1030000000	42
105.1330000000	46
105.1630000000	33
105.1930000000	33
105.2230000000	53
105.2530000000	36
105.2830000000	38
105.3130000000	40
105.3430000000	34
105.3730000000	34
105.4030000000	41
105.4330000000	39
105.4630000000	45
105.4930000000	32
105.5230000000	45
105.5530000000	44
105.5830000000	28
105.6130000000	34
105.6430000000	35
105.6730000000	24
105.7030000000	23
105.7330000000	28
105.7630000000	42
105.7930000000	44
105.8230000000	37
105.8530000000	26
105.8830000000	31
105.9130000000	31
105.9430000000	31
105.9730000000	36
106.0030000000	33
106.0330000000	31
106.0630000000	39
106.0930000000	33
106.1230000000	33
106.1530000000	37
106.1830000000	35
106.2130000000	27
106.2430000000	42
106.2730000000	36
106.3030000000	47
106.3330000000	37
106.3630000000	35
106.3930000000	33
106.4230000000	33
106.4530000000	38
106.4830000000	32
106.5130000000	32
106.5430000000	23
106.5730000000	31
106.6030000000	29
106.6330000000	47
106.6630000000	39
106.6930000000	29
106.7230000000	37
106.7530000000	33
106.7830000000	30
106.8130000000	31
106.8430000000	25
106.8730000000	34
106.9030000000	32
106.9330000000	40
106.9630000000	38
106.9930000000	41
107.0230000000	29
107.0530000000	39
107.0830000000	32
107.1130000000	41
107.1430000000	33
107.1730000000	39
107.2030000000	38
107.2330000000	34
107.2630000000	40
107.2930000000	40
107.3230000000	34
107.3530000000	42
107.3830000000	42
107.4130000000	28
107.4430000000	38
107.4730000000	41
107.5030000000	40
107.5330000000	35
107.5630000000	33
107.5930000000	39
107.6230000000	34
107.6530000000	38
107.6830000000	34
107.7130000000	30
107.7430000000	33
107.7730000000	29
107.8030000000	26
107.8330000000	29
107.8630000000	40
107.8930000000	43
107.9230000000	40
107.9530000000	40
107.9830000000	42
108.0130000000	41
108.0430000000	36
108.0730000000	40
108.1030000000	42
108.1330000000	36
108.1630000000	34
108.1930000000	47
108.2230000000	50
108.2530000000	42
108.2830000000	37
108.3130000000	36
108.3430000000	44
108.3730000000	38
108.4030000000	38
108.4330000000	47
108.4630000000	37
108.4930000000	44
108.5230000000	60
108.5530000000	50
108.5830000000	47
108.6130000000	54
108.6430000000	41
108.6730000000	54
108.7030000000	35
108.7330000000	39
108.7630000000	46
108.7930000000	43
108.8230000000	58
108.8530000000	50
108.8830000000	49
108.9130000000	44
108.9430000000	61
108.9730000000	48
109.0030000000	50
109.0330000000	41
109.0630000000	53
109.0930000000	61
109.1230000000	65
109.1530000000	66
109.1830000000	43
109.2130000000	47
109.2430000000	44
109.2730000000	31
109.3030000000	42
109.3330000000	28
109.3630000000	58
109.3930000000	45
109.4230000000	44
109.4530000000	47
109.4830000000	36
109.5130000000	36
109.5430000000	26
109.5730000000	40
109.6030000000	38
109.6330000000	34
109.6630000000	37
109.6930000000	38
109.7230000000	33
109.7530000000	35
109.7830000000	38
109.8130000000	30
109.8430000000	32
109.8730000000	36
109.9030000000	28
109.9330000000	27
109.9630000000	28
109.9930000000	27
110.0230000000	48
110.0530000000	28
110.0830000000	41
110.1130000000	38
110.1430000000	42
110.1730000000	33
110.2030000000	42
110.2330000000	36
110.2630000000	56
110.2930000000	29
110.3230000000	31
110.3530000000	44
110.3830000000	31
110.4130000000	39
110.4430000000	35
110.4730000000	32
110.5030000000	41
110.5330000000	41
110.5630000000	49
110.5930000000	40
110.6230000000	37
110.6530000000	42
110.6830000000	37
110.7130000000	42
110.7430000000	33
110.7730000000	47
110.8030000000	40
110.8330000000	34
110.8630000000	38
110.8930000000	39
110.9230000000	36
110.9530000000	42
110.9830000000	37
111.0130000000	32
111.0430000000	35
111.0730000000	41
111.1030000000	36
111.1330000000	34
111.1630000000	31
111.1930000000	24
111.2230000000	36
111.2530000000	43
111.2830000000	27
111.3130000000	46
111.3430000000	48
111.3730000000	40
111.4030000000	31
111.4330000000	32
111.4630000000	47
111.4930000000	42
111.5230000000	36
111.5530000000	39
111.5830000000	31
111.6130000000	36
111.6430000000	39
111.6730000000	35
111.7030000000	29
111.7330000000	38
111.7630000000	48
111.7930000000	56
111.8230000000	29
111.8530000000	42
111.8830000000	44
111.9130000000	24
111.9430000000	36
111.9730000000	32
112.0030000000	37
112.0330000000	28
112.0630000000	42
112.0930000000	34
112.1230000000	40
112.1530000000	43
112.1830000000	41
112.2130000000	29
112.2430000000	46
112.2730000000	42
112.3030000000	28
112.3330000000	24
112.3630000000	40
112.3930000000	42
112.4230000000	35
112.4530000000	46
112.4830000000	32
112.5130000000	46
112.5430000000	33
112.5730000000	40
112.6030000000	43
112.6330000000	38
112.6630000000	34
112.6930000000	33
112.7230000000	31
112.7530000000	33
112.7830000000	41
112.8130000000	48
112.8430000000	42
112.8730000000	33
112.9030000000	26
112.9330000000	38
112.9630000000	36
112.9930000000	45
113.0230000000	40
113.0530000000	38
113.0830000000	26
113.1130000000	41
113.1430000000	38
113.1730000000	37
113.2030000000	29
113.2330000000	36
113.2630000000	40
113.2930000000	47
113.3230000000	46
113.3530000000	36
113.3830000000	44
113.4130000000	45
113.4430000000	39
113.4730000000	43
113.5030000000	31
113.5330000000	37
113.5630000000	41
113.5930000000	36
113.6230000000	31
113.6530000000	38
113.6830000000	38
113.7130000000	33
113.7430000000	34
113.7730000000	41
113.8030000000	43
113.8330000000	34
113.8630000000	43
113.8930000000	49
113.9230000000	32
113.9530000000	44
113.9830000000	33
114.0130000000	39
114.0430000000	35
114.0730000000	38
114.1030000000	40
114.1330000000	35
114.1630000000	35
114.1930000000	37
114.2230000000	31
114.2530000000	34
114.2830000000	38
114.3130000000	28
114.3430000000	26
114.3730000000	50
114.4030000000	41
114.4330000000	31
114.4630000000	1
114.4930000000	1
114.5230000000	1
114.5530000000	1
114.5830000000	1
