0.3130000000	1
0.3430000000	1
0.3730000000	1
0.4030000000	1
0.4330000000	1
0.4630000000	1
0.4930000000	1
0.5230000000	1
0.5530000000	1
0.5830000000	2
0.6130000000	1
0.6430000000	1
0.6730000000	1
0.7030000000	1
0.7330000000	1
0.7630000000	2
0.7930000000	1
0.8230000000	1
0.8530000000	1
0.8830000000	1
0.9130000000	1
0.9430000000	1
0.9730000000	1
1.0030000000	1
1.0330000000	2
1.0630000000	1
1.0930000000	1
1.1230000000	1
1.1530000000	1
1.1830000000	3
1.2130000000	1
1.2430000000	1
1.2730000000	1
1.3030000000	1
1.3330000000	2
1.3630000000	1
1.3930000000	1
1.4230000000	1
1.4530000000	1
1.4830000000	1
1.5130000000	1
1.5430000000	2
1.5730000000	1
1.6030000000	2
1.6330000000	1
1.6630000000	1
1.6930000000	1
1.7230000000	1
1.7530000000	1
1.7830000000	1
1.8130000000	1
1.8430000000	1
1.8730000000	1
1.9030000000	1
1.9330000000	2
1.9630000000	1
1.9930000000	1
2.0230000000	1
2.0530000000	2
2.0830000000	2
2.1130000000	1
2.1430000000	1
2.1730000000	1
2.2030000000	1
2.2330000000	1
2.2630000000	1
2.2930000000	1
2.3230000000	1
2.3530000000	1
2.3830000000	2
2.4130000000	2
2.4430000000	1
2.4730000000	1
2.5030000000	1
2.5330000000	1
2.5630000000	2
2.5930000000	2
2.6230000000	1
2.6530000000	2
2.6830000000	2
2.7130000000	1
2.7430000000	1
2.7730000000	2
2.8030000000	2
2.8330000000	1
2.8630000000	1
2.8930000000	2
2.9230000000	3
2.9530000000	2
2.9830000000	1
3.0130000000	2
3.0430000000	2
3.0730000000	1
3.1030000000	1
3.1330000000	1
3.1630000000	1
3.1930000000	3
3.2230000000	4
3.2530000000	1
3.2830000000	1
3.3130000000	2
3.3430000000	1
3.3730000000	4
3.4030000000	3
3.4330000000	1
3.4630000000	2
3.4930000000	3
3.5230000000	1
3.5530000000	2
3.5830000000	1
3.6130000000	1
3.6430000000	2
3.6730000000	1
3.7030000000	4
3.7330000000	1
3.7630000000	2
3.7930000000	2
3.8230000000	2
3.8530000000	2
3.8830000000	3
3.9130000000	2
3.9430000000	3
3.9730000000	1
4.0030000000	3
4.0330000000	4
4.0630000000	2
4.0930000000	3
4.1230000000	4
4.1530000000	3
4.1830000000	5
4.2130000000	2
4.2430000000	2
4.2730000000	3
4.3030000000	3
4.3330000000	5
4.3630000000	5
4.3930000000	7
4.4230000000	3
4.4530000000	7
4.4830000000	11
4.5130000000	26
4.5430000000	36
4.5730000000	55
4.6030000000	78
4.6330000000	92
4.6630000000	104
4.6930000000	135
4.7230000000	128
4.7530000000	126
4.7830000000	154
4.8130000000	124
4.8430000000	132
4.8730000000	132
4.9030000000	148
4.9330000000	150
4.9630000000	140
4.9930000000	112
5.0230000000	130
5.0530000000	160
5.0830000000	148
5.1130000000	140
5.1430000000	137
5.1730000000	122
5.2030000000	130
5.2330000000	166
5.2630000000	145
5.2930000000	142
5.3230000000	160
5.3530000000	151
5.3830000000	137
5.4130000000	152
5.4430000000	142
5.4730000000	139
5.5030000000	131
5.5330000000	153
5.5630000000	139
5.5930000000	149
5.6230000000	142
5.6530000000	146
5.6830000000	123
5.7130000000	151
5.7430000000	149
5.7730000000	149
5.8030000000	157
5.8330000000	137
5.8630000000	141
5.8930000000	143
5.9230000000	152
5.9530000000	147
5.9830000000	157
6.0130000000	156
6.0430000000	151
6.0730000000	172
6.1030000000	140
6.1330000000	130
6.1630000000	149
6.1930000000	151
6.2230000000	134
6.2530000000	157
6.2830000000	136
6.3130000000	142
6.3430000000	117
6.3730000000	168
6.4030000000	157
6.4330000000	140
6.4630000000	150
6.4930000000	138
6.5230000000	157
6.5530000000	143
6.5830000000	163
6.6130000000	162
6.6430000000	165
6.6730000000	155
6.7030000000	151
6.7330000000	160
6.7630000000	164
6.7930000000	138
6.8230000000	142
6.8530000000	129
6.8830000000	149
6.9130000000	135
6.9430000000	129
6.9730000000	146
7.0030000000	143
7.0330000000	127
7.0630000000	139
7.0930000000	143
7.1230000000	145
7.1530000000	133
7.1830000000	143
7.2130000000	132
7.2430000000	142
7.2730000000	149
7.3030000000	149
7.3330000000	123
7.3630000000	147
7.3930000000	163
7.4230000000	143
7.4530000000	132
7.4830000000	155
7.5130000000	153
7.5430000000	135
7.5730000000	146
7.6030000000	147
7.6330000000	145
7.6630000000	139
7.6930000000	149
7.7230000000	156
7.7530000000	146
7.7830000000	143
7.8130000000	147
7.8430000000	139
7.8730000000	136
7.9030000000	142
7.9330000000	141
7.9630000000	145
7.9930000000	146
8.0230000000	146
8.0530000000	137
8.0830000000	156
8.1130000000	157
8.1430000000	155
8.1730000000	158
8.2030000000	155
8.2330000000	139
8.2630000000	129
8.2930000000	152
8.3230000000	135
8.3530000000	158
8.3830000000	149
8.4130000000	136
8.4430000000	155
8.4730000000	144
8.5030000000	154
8.5330000000	140
8.5630000000	146
8.5930000000	160
8.6230000000	164
8.6530000000	138
8.6830000000	133
8.7130000000	139
8.7430000000	141
8.7730000000	132
8.8030000000	133
8.8330000000	131
8.8630000000	118
8.8930000000	160
8.9230000000	147
8.9530000000	160
8.9830000000	133
9.0130000000	129
9.0430000000	148
9.0730000000	133
9.1030000000	147
9.1330000000	145
9.1630000000	141
9.1930000000	149
9.2230000000	145
9.2530000000	126
9.2830000000	151
9.3130000000	126
9.3430000000	140
9.3730000000	151
9.4030000000	138
9.4330000000	134
9.4630000000	138
9.4930000000	136
9.5230000000	146
9.5530000000	139
9.5830000000	139
9.6130000000	158
9.6430000000	140
9.6730000000	135
9.7030000000	136
9.7330000000	167
9.7630000000	147
9.7930000000	151
9.8230000000	156
9.8530000000	150
9.8830000000	155
9.9130000000	146
9.9430000000	154
9.9730000000	155
10.0030000000	156
10.0330000000	132
10.0630000000	134
10.0930000000	154
10.1230000000	133
10.1530000000	142
10.1830000000	154
10.2130000000	145
10.2430000000	157
10.2730000000	148
10.3030000000	142
10.3330000000	152
10.3630000000	151
10.3930000000	153
10.4230000000	141
10.4530000000	149
10.4830000000	154
10.5130000000	158
10.5430000000	140
10.5730000000	142
10.6030000000	162
10.6330000000	158
10.6630000000	186
10.6930000000	152
10.7230000000	146
10.7530000000	151
10.7830000000	136
10.8130000000	140
10.8430000000	141
10.8730000000	168
10.9030000000	147
10.9330000000	121
10.9630000000	164
10.9930000000	150
11.0230000000	150
11.0530000000	143
11.0830000000	128
11.1130000000	149
11.1430000000	133
11.1730000000	136
11.2030000000	167
11.2330000000	126
11.2630000000	152
11.2930000000	157
11.3230000000	149
11.3530000000	144
11.3830000000	147
11.4130000000	153
11.4430000000	136
11.4730000000	140
11.5030000000	151
11.5330000000	160
11.5630000000	131
11.5930000000	170
11.6230000000	161
11.6530000000	133
11.6830000000	153
11.7130000000	156
11.7430000000	162
11.7730000000	172
11.8030000000	142
11.8330000000	134
11.8630000000	143
11.8930000000	166
11.9230000000	154
11.9530000000	156
11.9830000000	158
12.0130000000	158
12.0430000000	146
12.0730000000	153
12.1030000000	144
12.1330000000	141
12.1630000000	141
12.1930000000	146
12.2230000000	153
12.2530000000	153
12.2830000000	134
12.3130000000	150
12.3430000000	158
12.3730000000	153
12.4030000000	142
12.4330000000	134
12.4630000000	156
12.4930000000	162
12.5230000000	146
12.5530000000	149
12.5830000000	156
12.6130000000	144
12.6430000000	138
12.6730000000	145
12.7030000000	132
12.7330000000	146
12.7630000000	160
12.7930000000	150
12.8230000000	155
12.8530000000	147
12.8830000000	146
12.9130000000	153
12.9430000000	150
12.9730000000	142
13.0030000000	147
13.0330000000	154
13.0630000000	151
13.0930000000	146
13.1230000000	141
13.1530000000	155
13.1830000000	145
13.2130000000	170
13.2430000000	164
13.2730000000	148
13.3030000000	137
13.3330000000	136
13.3630000000	140
13.3930000000	148
13.4230000000	161
13.4530000000	166
13.4830000000	123
13.5130000000	127
13.5430000000	132
13.5730000000	150
13.6030000000	133
13.6330000000	166
13.6630000000	156
13.6930000000	146
13.7230000000	143
13.7530000000	147
13.7830000000	135
13.8130000000	144
13.8430000000	152
13.8730000000	135
13.9030000000	147
13.9330000000	143
13.9630000000	163
13.9930000000	141
14.0230000000	145
14.0530000000	154
14.0830000000	164
14.1130000000	123
14.1430000000	142
14.1730000000	141
14.2030000000	159
14.2330000000	149
14.2630000000	140
14.2930000000	148
14.3230000000	138
14.3530000000	154
14.3830000000	152
14.4130000000	123
14.4430000000	149
14.4730000000	140
14.5030000000	155
14.5330000000	145
14.5630000000	145
14.5930000000	130
14.6230000000	153
14.6530000000	152
14.6830000000	154
14.7130000000	155
14.7430000000	148
14.7730000000	160
14.8030000000	141
14.8330000000	152
14.8630000000	164
14.8930000000	150
14.9230000000	171
14.9530000000	140
14.9830000000	150
15.0130000000	144
15.0430000000	162
15.0730000000	161
15.1030000000	143
15.1330000000	141
15.1630000000	150
15.1930000000	171
15.2230000000	146
15.2530000000	157
15.2830000000	151
15.3130000000	168
15.3430000000	162
15.3730000000	161
15.4030000000	149
15.4330000000	143
15.4630000000	148
15.4930000000	138
15.5230000000	157
15.5530000000	154
15.5830000000	160
15.6130000000	165
15.6430000000	144
15.6730000000	160
15.7030000000	140
15.7330000000	161
15.7630000000	147
15.7930000000	154
15.8230000000	144
15.8530000000	145
15.8830000000	160
15.9130000000	133
15.9430000000	139
15.9730000000	135
16.0030000000	152
16.0330000000	149
16.0630000000	175
16.0930000000	160
16.1230000000	147
16.1530000000	155
16.1830000000	150
16.2130000000	157
16.2430000000	145
16.2730000000	141
16.3030000000	177
16.3330000000	157
16.3630000000	164
16.3930000000	164
16.4230000000	143
16.4530000000	143
16.4830000000	139
16.5130000000	151
16.5430000000	129
16.5730000000	160
16.6030000000	158
16.6330000000	168
16.6630000000	190
16.6930000000	163
16.7230000000	141
16.7530000000	162
16.7830000000	137
16.8130000000	160
16.8430000000	169
16.8730000000	154
16.9030000000	146
16.9330000000	165
16.9630000000	142
16.9930000000	159
17.0230000000	152
17.0530000000	148
17.0830000000	149
17.1130000000	147
17.1430000000	153
17.1730000000	161
17.2030000000	157
17.2330000000	142
17.2630000000	155
17.2930000000	150
17.3230000000	156
17.3530000000	168
17.3830000000	156
17.4130000000	157
17.4430000000	175
17.4730000000	165
17.5030000000	151
17.5330000000	160
17.5630000000	157
17.5930000000	147
17.6230000000	152
17.6530000000	166
17.6830000000	174
17.7130000000	168
17.7430000000	161
17.7730000000	152
17.8030000000	154
17.8330000000	144
17.8630000000	139
17.8930000000	144
17.9230000000	138
17.9530000000	157
17.9830000000	147
18.0130000000	122
18.0430000000	150
18.0730000000	164
18.1030000000	131
18.1330000000	133
18.1630000000	161
18.1930000000	164
18.2230000000	174
18.2530000000	161
18.2830000000	147
18.3130000000	159
18.3430000000	161
18.3730000000	183
18.4030000000	161
18.4330000000	140
18.4630000000	170
18.4930000000	161
18.5230000000	140
18.5530000000	126
18.5830000000	169
18.6130000000	155
18.6430000000	157
18.6730000000	147
18.7030000000	169
18.7330000000	196
18.7630000000	161
18.7930000000	160
18.8230000000	155
18.8530000000	159
18.8830000000	140
18.9130000000	166
18.9430000000	142
18.9730000000	174
19.0030000000	132
19.0330000000	159
19.0630000000	146
19.0930000000	161
19.1230000000	159
19.1530000000	197
19.1830000000	158
19.2130000000	156
19.2430000000	154
19.2730000000	153
19.3030000000	142
19.3330000000	145
19.3630000000	164
19.3930000000	189
19.4230000000	145
19.4530000000	172
19.4830000000	175
19.5130000000	173
19.5430000000	179
19.5730000000	175
19.6030000000	161
19.6330000000	169
19.6630000000	148
19.6930000000	143
19.7230000000	161
19.7530000000	161
19.7830000000	150
19.8130000000	182
19.8430000000	183
19.8730000000	175
19.9030000000	155
19.9330000000	167
19.9630000000	178
19.9930000000	182
20.0230000000	181
20.0530000000	146
20.0830000000	156
20.1130000000	163
20.1430000000	177
20.1730000000	163
20.2030000000	157
20.2330000000	163
20.2630000000	162
20.2930000000	182
20.3230000000	172
20.3530000000	171
20.3830000000	159
20.4130000000	186
20.4430000000	161
20.4730000000	162
20.5030000000	164
20.5330000000	167
20.5630000000	175
20.5930000000	176
20.6230000000	149
20.6530000000	176
20.6830000000	186
20.7130000000	158
20.7430000000	176
20.7730000000	173
20.8030000000	186
20.8330000000	188
20.8630000000	171
20.8930000000	161
20.9230000000	169
20.9530000000	176
20.9830000000	176
21.0130000000	163
21.0430000000	179
21.0730000000	185
21.1030000000	164
21.1330000000	153
21.1630000000	180
21.1930000000	182
21.2230000000	169
21.2530000000	175
21.2830000000	191
21.3130000000	208
21.3430000000	178
21.3730000000	185
21.4030000000	188
21.4330000000	169
21.4630000000	168
21.4930000000	179
21.5230000000	175
21.5530000000	159
21.5830000000	172
21.6130000000	189
21.6430000000	191
21.6730000000	178
21.7030000000	198
21.7330000000	171
21.7630000000	193
21.7930000000	188
21.8230000000	183
21.8530000000	177
21.8830000000	171
21.9130000000	160
21.9430000000	188
21.9730000000	197
22.0030000000	183
22.0330000000	189
22.0630000000	202
22.0930000000	189
22.1230000000	179
22.1530000000	181
22.1830000000	171
22.2130000000	173
22.2430000000	198
22.2730000000	185
22.3030000000	189
22.3330000000	187
22.3630000000	210
22.3930000000	194
22.4230000000	195
22.4530000000	205
22.4830000000	199
22.5130000000	199
22.5430000000	188
22.5730000000	189
22.6030000000	202
22.6330000000	206
22.6630000000	189
22.6930000000	196
22.7230000000	222
22.7530000000	196
22.7830000000	189
22.8130000000	185
22.8430000000	203
22.8730000000	206
22.9030000000	208
22.9330000000	214
22.9630000000	200
22.9930000000	195
23.0230000000	192
23.0530000000	185
23.0830000000	204
23.1130000000	208
23.1430000000	212
23.1730000000	201
23.2030000000	204
23.2330000000	226
23.2630000000	227
23.2930000000	252
23.3230000000	263
23.3530000000	335
23.3830000000	425
23.4130000000	597
23.4430000000	839
23.4730000000	1161
23.5030000000	1631
23.5330000000	2390
23.5630000000	2989
23.5930000000	3115
23.6230000000	2544
23.6530000000	1833
23.6830000000	1212
23.7130000000	793
23.7430000000	556
23.7730000000	421
23.8030000000	332
23.8330000000	274
23.8630000000	241
23.8930000000	250
23.9230000000	243
23.9530000000	240
23.9830000000	198
24.0130000000	222
24.0430000000	181
24.0730000000	224
24.1030000000	209
24.1330000000	207
24.1630000000	170
24.1930000000	200
24.2230000000	199
24.2530000000	231
24.2830000000	202
24.3130000000	208
24.3430000000	201
24.3730000000	240
24.4030000000	218
24.4330000000	191
24.4630000000	197
24.4930000000	179
24.5230000000	188
24.5530000000	204
24.5830000000	160
24.6130000000	189
24.6430000000	195
24.6730000000	200
24.7030000000	180
24.7330000000	194
24.7630000000	189
24.7930000000	202
24.8230000000	160
24.8530000000	181
24.8830000000	192
24.9130000000	198
24.9430000000	202
24.9730000000	209
25.0030000000	182
25.0330000000	182
25.0630000000	175
25.0930000000	172
25.1230000000	206
25.1530000000	196
25.1830000000	204
25.2130000000	195
25.2430000000	202
25.2730000000	192
25.3030000000	182
25.3330000000	192
25.3630000000	186
25.3930000000	198
25.4230000000	193
25.4530000000	188
25.4830000000	207
25.5130000000	188
25.5430000000	180
25.5730000000	188
25.6030000000	207
25.6330000000	196
25.6630000000	197
25.6930000000	211
25.7230000000	211
25.7530000000	219
25.7830000000	212
25.8130000000	202
25.8430000000	182
25.8730000000	174
25.9030000000	211
25.9330000000	173
25.9630000000	182
25.9930000000	178
26.0230000000	191
26.0530000000	191
26.0830000000	183
26.1130000000	176
26.1430000000	189
26.1730000000	176
26.2030000000	198
26.2330000000	187
26.2630000000	167
26.2930000000	190
26.3230000000	200
26.3530000000	195
26.3830000000	183
26.4130000000	195
26.4430000000	193
26.4730000000	198
26.5030000000	198
26.5330000000	186
26.5630000000	186
26.5930000000	188
26.6230000000	189
26.6530000000	200
26.6830000000	206
26.7130000000	200
26.7430000000	181
26.7730000000	181
26.8030000000	160
26.8330000000	167
26.8630000000	188
26.8930000000	176
26.9230000000	176
26.9530000000	186
26.9830000000	191
27.0130000000	191
27.0430000000	188
27.0730000000	183
27.1030000000	179
27.1330000000	192
27.1630000000	182
27.1930000000	161
27.2230000000	179
27.2530000000	176
27.2830000000	204
27.3130000000	181
27.3430000000	168
27.3730000000	157
27.4030000000	177
27.4330000000	165
27.4630000000	191
27.4930000000	172
27.5230000000	181
27.5530000000	192
27.5830000000	201
27.6130000000	163
27.6430000000	177
27.6730000000	156
27.7030000000	158
27.7330000000	167
27.7630000000	179
27.7930000000	179
27.8230000000	181
27.8530000000	158
27.8830000000	174
27.9130000000	177
27.9430000000	163
27.9730000000	175
28.0030000000	211
28.0330000000	170
28.0630000000	164
28.0930000000	178
28.1230000000	182
28.1530000000	171
28.1830000000	177
28.2130000000	177
28.2430000000	207
28.2730000000	181
28.3030000000	216
28.3330000000	170
28.3630000000	162
28.3930000000	165
28.4230000000	176
28.4530000000	171
28.4830000000	151
28.5130000000	179
28.5430000000	166
28.5730000000	177
28.6030000000	169
28.6330000000	176
28.6630000000	161
28.6930000000	176
28.7230000000	168
28.7530000000	170
28.7830000000	174
28.8130000000	154
28.8430000000	180
28.8730000000	163
28.9030000000	165
28.9330000000	177
28.9630000000	151
28.9930000000	163
29.0230000000	183
29.0530000000	175
29.0830000000	168
29.1130000000	155
29.1430000000	180
29.1730000000	168
29.2030000000	176
29.2330000000	177
29.2630000000	154
29.2930000000	158
29.3230000000	169
29.3530000000	176
29.3830000000	162
29.4130000000	154
29.4430000000	171
29.4730000000	162
29.5030000000	159
29.5330000000	153
29.5630000000	166
29.5930000000	160
29.6230000000	164
29.6530000000	155
29.6830000000	167
29.7130000000	178
29.7430000000	148
29.7730000000	161
29.8030000000	175
29.8330000000	175
29.8630000000	182
29.8930000000	152
29.9230000000	183
29.9530000000	145
29.9830000000	156
30.0130000000	165
30.0430000000	151
30.0730000000	170
30.1030000000	190
30.1330000000	147
30.1630000000	171
30.1930000000	164
30.2230000000	165
30.2530000000	186
30.2830000000	167
30.3130000000	166
30.3430000000	174
30.3730000000	173
30.4030000000	179
30.4330000000	163
30.4630000000	174
30.4930000000	180
30.5230000000	168
30.5530000000	162
30.5830000000	162
30.6130000000	177
30.6430000000	149
30.6730000000	147
30.7030000000	154
30.7330000000	155
30.7630000000	165
30.7930000000	173
30.8230000000	162
30.8530000000	176
30.8830000000	162
30.9130000000	197
30.9430000000	129
30.9730000000	172
31.0030000000	151
31.0330000000	178
31.0630000000	158
31.0930000000	154
31.1230000000	174
31.1530000000	156
31.1830000000	168
31.2130000000	172
31.2430000000	156
31.2730000000	162
31.3030000000	167
31.3330000000	160
31.3630000000	139
31.3930000000	158
31.4230000000	151
31.4530000000	166
31.4830000000	167
31.5130000000	174
31.5430000000	180
31.5730000000	152
31.6030000000	163
31.6330000000	169
31.6630000000	155
31.6930000000	170
31.7230000000	163
31.7530000000	138
31.7830000000	160
31.8130000000	164
31.8430000000	172
31.8730000000	180
31.9030000000	190
31.9330000000	165
31.9630000000	159
31.9930000000	144
32.0230000000	169
32.0530000000	185
32.0830000000	174
32.1130000000	151
32.1430000000	172
32.1730000000	173
32.2030000000	154
32.2330000000	145
32.2630000000	178
32.2930000000	168
32.3230000000	143
32.3530000000	160
32.3830000000	157
32.4130000000	181
32.4430000000	155
32.4730000000	144
32.5030000000	157
32.5330000000	170
32.5630000000	164
32.5930000000	172
32.6230000000	159
32.6530000000	166
32.6830000000	162
32.7130000000	156
32.7430000000	162
32.7730000000	184
32.8030000000	174
32.8330000000	155
32.8630000000	156
32.8930000000	176
32.9230000000	186
32.9530000000	187
32.9830000000	182
33.0130000000	175
33.0430000000	159
33.0730000000	179
33.1030000000	153
33.1330000000	166
33.1630000000	169
33.1930000000	179
33.2230000000	165
33.2530000000	188
33.2830000000	182
33.3130000000	179
33.3430000000	222
33.3730000000	245
33.4030000000	274
33.4330000000	402
33.4630000000	451
33.4930000000	633
33.5230000000	783
33.5530000000	921
33.5830000000	976
33.6130000000	982
33.6430000000	831
33.6730000000	664
33.7030000000	499
33.7330000000	414
33.7630000000	306
33.7930000000	261
33.8230000000	220
33.8530000000	211
33.8830000000	213
33.9130000000	198
33.9430000000	186
33.9730000000	160
34.0030000000	156
34.0330000000	177
34.0630000000	188
34.0930000000	174
34.1230000000	152
34.1530000000	151
34.1830000000	146
34.2130000000	172
34.2430000000	149
34.2730000000	160
34.3030000000	159
34.3330000000	169
34.3630000000	184
34.3930000000	164
34.4230000000	163
34.4530000000	154
34.4830000000	148
34.5130000000	156
34.5430000000	139
34.5730000000	132
34.6030000000	165
34.6330000000	135
34.6630000000	140
34.6930000000	146
34.7230000000	152
34.7530000000	157
34.7830000000	147
34.8130000000	141
34.8430000000	140
34.8730000000	143
34.9030000000	151
34.9330000000	155
34.9630000000	162
34.9930000000	134
35.0230000000	145
35.0530000000	142
35.0830000000	126
35.1130000000	141
35.1430000000	148
35.1730000000	162
35.2030000000	150
35.2330000000	128
35.2630000000	169
35.2930000000	154
35.3230000000	149
35.3530000000	161
35.3830000000	142
35.4130000000	140
35.4430000000	146
35.4730000000	127
35.5030000000	142
35.5330000000	123
35.5630000000	131
35.5930000000	139
35.6230000000	145
35.6530000000	132
35.6830000000	140
35.7130000000	127
35.7430000000	135
35.7730000000	131
35.8030000000	139
35.8330000000	128
35.8630000000	128
35.8930000000	134
35.9230000000	133
35.9530000000	144
35.9830000000	156
36.0130000000	131
36.0430000000	134
36.0730000000	136
36.1030000000	141
36.1330000000	127
36.1630000000	147
36.1930000000	128
36.2230000000	149
36.2530000000	143
36.2830000000	136
36.3130000000	133
36.3430000000	141
36.3730000000	120
36.4030000000	132
36.4330000000	144
36.4630000000	138
36.4930000000	130
36.5230000000	147
36.5530000000	158
36.5830000000	130
36.6130000000	129
36.6430000000	125
36.6730000000	129
36.7030000000	126
36.7330000000	126
36.7630000000	133
36.7930000000	129
36.8230000000	120
36.8530000000	151
36.8830000000	154
36.9130000000	125
36.9430000000	119
36.9730000000	122
37.0030000000	129
37.0330000000	124
37.0630000000	132
37.0930000000	125
37.1230000000	130
37.1530000000	141
37.1830000000	125
37.2130000000	132
37.2430000000	130
37.2730000000	131
37.3030000000	129
37.3330000000	124
37.3630000000	128
37.3930000000	133
37.4230000000	132
37.4530000000	112
37.4830000000	130
37.5130000000	118
37.5430000000	123
37.5730000000	128
37.6030000000	121
37.6330000000	138
37.6630000000	143
37.6930000000	123
37.7230000000	117
37.7530000000	140
37.7830000000	126
37.8130000000	124
37.8430000000	140
37.8730000000	142
37.9030000000	134
37.9330000000	124
37.9630000000	118
37.9930000000	103
38.0230000000	109
38.0530000000	116
38.0830000000	116
38.1130000000	115
38.1430000000	108
38.1730000000	117
38.2030000000	125
38.2330000000	116
38.2630000000	104
38.2930000000	117
38.3230000000	135
38.3530000000	132
38.3830000000	131
38.4130000000	119
38.4430000000	115
38.4730000000	117
38.5030000000	115
38.5330000000	123
38.5630000000	116
38.5930000000	113
38.6230000000	119
38.6530000000	104
38.6830000000	105
38.7130000000	116
38.7430000000	103
38.7730000000	119
38.8030000000	138
38.8330000000	132
38.8630000000	116
38.8930000000	110
38.9230000000	123
38.9530000000	121
38.9830000000	131
39.0130000000	133
39.0430000000	94
39.0730000000	115
39.1030000000	123
39.1330000000	140
39.1630000000	120
39.1930000000	128
39.2230000000	126
39.2530000000	136
39.2830000000	122
39.3130000000	125
39.3430000000	137
39.3730000000	128
39.4030000000	117
39.4330000000	120
39.4630000000	107
39.4930000000	112
39.5230000000	112
39.5530000000	117
39.5830000000	98
39.6130000000	104
39.6430000000	118
39.6730000000	113
39.7030000000	121
39.7330000000	115
39.7630000000	127
39.7930000000	121
39.8230000000	123
39.8530000000	122
39.8830000000	96
39.9130000000	108
39.9430000000	110
39.9730000000	104
40.0030000000	108
40.0330000000	109
40.0630000000	104
40.0930000000	122
40.1230000000	111
40.1530000000	109
40.1830000000	118
40.2130000000	126
40.2430000000	113
40.2730000000	107
40.3030000000	113
40.3330000000	92
40.3630000000	133
40.3930000000	110
40.4230000000	137
40.4530000000	113
40.4830000000	114
40.5130000000	117
40.5430000000	107
40.5730000000	118
40.6030000000	115
40.6330000000	115
40.6630000000	128
40.6930000000	110
40.7230000000	117
40.7530000000	108
40.7830000000	126
40.8130000000	137
40.8430000000	132
40.8730000000	124
40.9030000000	128
40.9330000000	118
40.9630000000	106
40.9930000000	122
41.0230000000	113
41.0530000000	126
41.0830000000	135
41.1130000000	131
41.1430000000	101
41.1730000000	117
41.2030000000	110
41.2330000000	104
41.2630000000	140
41.2930000000	136
41.3230000000	124
41.3530000000	147
41.3830000000	159
41.4130000000	194
41.4430000000	190
41.4730000000	169
41.5030000000	203
41.5330000000	173
41.5630000000	141
41.5930000000	150
41.6230000000	134
41.6530000000	116
41.6830000000	118
41.7130000000	118
41.7430000000	122
41.7730000000	110
41.8030000000	114
41.8330000000	111
41.8630000000	135
41.8930000000	126
41.9230000000	120
41.9530000000	111
41.9830000000	122
42.0130000000	114
42.0430000000	106
42.0730000000	117
42.1030000000	104
42.1330000000	103
42.1630000000	107
42.1930000000	108
42.2230000000	105
42.2530000000	115
42.2830000000	110
42.3130000000	123
42.3430000000	118
42.3730000000	110
42.4030000000	119
42.4330000000	108
42.4630000000	105
42.4930000000	109
42.5230000000	110
42.5530000000	103
42.5830000000	98
42.6130000000	106
42.6430000000	109
42.6730000000	107
42.7030000000	107
42.7330000000	105
42.7630000000	103
42.7930000000	112
42.8230000000	123
42.8530000000	110
42.8830000000	109
42.9130000000	107
42.9430000000	125
42.9730000000	115
43.0030000000	101
43.0330000000	102
43.0630000000	110
43.0930000000	110
43.1230000000	115
43.1530000000	104
43.1830000000	119
43.2130000000	104
43.2430000000	120
43.2730000000	117
43.3030000000	128
43.3330000000	98
43.3630000000	107
43.3930000000	100
43.4230000000	135
43.4530000000	118
43.4830000000	89
43.5130000000	111
43.5430000000	115
43.5730000000	113
43.6030000000	118
43.6330000000	123
43.6630000000	127
43.6930000000	92
43.7230000000	97
43.7530000000	109
43.7830000000	110
43.8130000000	115
43.8430000000	107
43.8730000000	134
43.9030000000	111
43.9330000000	111
43.9630000000	117
43.9930000000	106
44.0230000000	105
44.0530000000	104
44.0830000000	117
44.1130000000	98
44.1430000000	102
44.1730000000	103
44.2030000000	120
44.2330000000	114
44.2630000000	98
44.2930000000	102
44.3230000000	125
44.3530000000	116
44.3830000000	110
44.4130000000	101
44.4430000000	105
44.4730000000	93
44.5030000000	95
44.5330000000	123
44.5630000000	104
44.5930000000	86
44.6230000000	114
44.6530000000	93
44.6830000000	125
44.7130000000	105
44.7430000000	104
44.7730000000	104
44.8030000000	116
44.8330000000	96
44.8630000000	94
44.8930000000	90
44.9230000000	98
44.9530000000	113
44.9830000000	108
45.0130000000	110
45.0430000000	118
45.0730000000	86
45.1030000000	90
45.1330000000	91
45.1630000000	110
45.1930000000	96
45.2230000000	105
45.2530000000	109
45.2830000000	98
45.3130000000	91
45.3430000000	104
45.3730000000	105
45.4030000000	106
45.4330000000	108
45.4630000000	121
45.4930000000	102
45.5230000000	103
45.5530000000	112
45.5830000000	102
45.6130000000	100
45.6430000000	106
45.6730000000	98
45.7030000000	101
45.7330000000	108
45.7630000000	97
45.7930000000	97
45.8230000000	101
45.8530000000	102
45.8830000000	91
45.9130000000	104
45.9430000000	94
45.9730000000	99
46.0030000000	88
46.0330000000	86
46.0630000000	87
46.0930000000	95
46.1230000000	104
46.1530000000	104
46.1830000000	92
46.2130000000	83
46.2430000000	97
46.2730000000	107
46.3030000000	113
46.3330000000	97
46.3630000000	115
46.3930000000	93
46.4230000000	114
46.4530000000	94
46.4830000000	93
46.5130000000	86
46.5430000000	81
46.5730000000	110
46.6030000000	100
46.6330000000	82
46.6630000000	76
46.6930000000	86
46.7230000000	101
46.7530000000	96
46.7830000000	114
46.8130000000	90
46.8430000000	75
46.8730000000	95
46.9030000000	96
46.9330000000	95
46.9630000000	88
46.9930000000	104
47.0230000000	105
47.0530000000	106
47.0830000000	114
47.1130000000	99
47.1430000000	100
47.1730000000	101
47.2030000000	95
47.2330000000	86
47.2630000000	86
47.2930000000	113
47.3230000000	95
47.3530000000	111
47.3830000000	113
47.4130000000	79
47.4430000000	104
47.4730000000	86
47.5030000000	82
47.5330000000	103
47.5630000000	102
47.5930000000	96
47.6230000000	87
47.6530000000	89
47.6830000000	89
47.7130000000	93
47.7430000000	82
47.7730000000	84
47.8030000000	97
47.8330000000	94
47.8630000000	103
47.8930000000	99
47.9230000000	84
47.9530000000	115
47.9830000000	106
48.0130000000	104
48.0430000000	117
48.0730000000	139
48.1030000000	151
48.1330000000	226
48.1630000000	244
48.1930000000	309
48.2230000000	348
48.2530000000	294
48.2830000000	250
48.3130000000	249
48.3430000000	210
48.3730000000	178
48.4030000000	127
48.4330000000	122
48.4630000000	112
48.4930000000	105
48.5230000000	98
48.5530000000	87
48.5830000000	85
48.6130000000	96
48.6430000000	96
48.6730000000	88
48.7030000000	75
48.7330000000	84
48.7630000000	89
48.7930000000	87
48.8230000000	94
48.8530000000	72
48.8830000000	69
48.9130000000	87
48.9430000000	79
48.9730000000	77
49.0030000000	81
49.0330000000	78
49.0630000000	85
49.0930000000	90
49.1230000000	88
49.1530000000	79
49.1830000000	69
49.2130000000	70
49.2430000000	78
49.2730000000	105
49.3030000000	85
49.3330000000	91
49.3630000000	95
49.3930000000	79
49.4230000000	75
49.4530000000	82
49.4830000000	94
49.5130000000	91
49.5430000000	96
49.5730000000	81
49.6030000000	87
49.6330000000	90
49.6630000000	81
49.6930000000	75
49.7230000000	65
49.7530000000	93
49.7830000000	78
49.8130000000	86
49.8430000000	88
49.8730000000	76
49.9030000000	75
49.9330000000	73
49.9630000000	81
49.9930000000	89
50.0230000000	73
50.0530000000	75
50.0830000000	87
50.1130000000	77
50.1430000000	67
50.1730000000	81
50.2030000000	75
50.2330000000	67
50.2630000000	74
50.2930000000	74
50.3230000000	69
50.3530000000	89
50.3830000000	76
50.4130000000	85
50.4430000000	86
50.4730000000	90
50.5030000000	91
50.5330000000	85
50.5630000000	80
50.5930000000	80
50.6230000000	93
50.6530000000	67
50.6830000000	65
50.7130000000	77
50.7430000000	67
50.7730000000	68
50.8030000000	75
50.8330000000	86
50.8630000000	80
50.8930000000	78
50.9230000000	80
50.9530000000	69
50.9830000000	72
51.0130000000	68
51.0430000000	84
51.0730000000	81
51.1030000000	67
51.1330000000	70
51.1630000000	76
51.1930000000	61
51.2230000000	65
51.2530000000	65
51.2830000000	60
51.3130000000	64
51.3430000000	75
51.3730000000	71
51.4030000000	75
51.4330000000	68
51.4630000000	81
51.4930000000	80
51.5230000000	76
51.5530000000	67
51.5830000000	58
51.6130000000	56
51.6430000000	70
51.6730000000	75
51.7030000000	54
51.7330000000	76
51.7630000000	72
51.7930000000	70
51.8230000000	63
51.8530000000	69
51.8830000000	71
51.9130000000	63
51.9430000000	82
51.9730000000	79
52.0030000000	69
52.0330000000	67
52.0630000000	63
52.0930000000	61
52.1230000000	69
52.1530000000	71
52.1830000000	88
52.2130000000	80
52.2430000000	67
52.2730000000	84
52.3030000000	89
52.3330000000	56
52.3630000000	58
52.3930000000	57
52.4230000000	72
52.4530000000	76
52.4830000000	62
52.5130000000	58
52.5430000000	72
52.5730000000	58
52.6030000000	71
52.6330000000	69
52.6630000000	71
52.6930000000	68
52.7230000000	86
52.7530000000	61
52.7830000000	59
52.8130000000	69
52.8430000000	56
52.8730000000	55
52.9030000000	66
52.9330000000	76
52.9630000000	59
52.9930000000	55
53.0230000000	63
53.0530000000	71
53.0830000000	61
53.1130000000	66
53.1430000000	65
53.1730000000	62
53.2030000000	62
53.2330000000	62
53.2630000000	60
53.2930000000	57
53.3230000000	58
53.3530000000	63
53.3830000000	69
53.4130000000	75
53.4430000000	64
53.4730000000	64
53.5030000000	73
53.5330000000	56
53.5630000000	71
53.5930000000	59
53.6230000000	66
53.6530000000	65
53.6830000000	52
53.7130000000	65
53.7430000000	64
53.7730000000	51
53.8030000000	55
53.8330000000	62
53.8630000000	64
53.8930000000	63
53.9230000000	66
53.9530000000	57
53.9830000000	53
54.0130000000	64
54.0430000000	60
54.0730000000	68
54.1030000000	60
54.1330000000	54
54.1630000000	61
54.1930000000	57
54.2230000000	48
54.2530000000	67
54.2830000000	55
54.3130000000	68
54.3430000000	72
54.3730000000	72
54.4030000000	68
54.4330000000	76
54.4630000000	68
54.4930000000	59
54.5230000000	80
54.5530000000	58
54.5830000000	60
54.6130000000	63
54.6430000000	55
54.6730000000	55
54.7030000000	69
54.7330000000	58
54.7630000000	55
54.7930000000	68
54.8230000000	59
54.8530000000	71
54.8830000000	62
54.9130000000	56
54.9430000000	64
54.9730000000	59
55.0030000000	47
55.0330000000	44
55.0630000000	63
55.0930000000	59
55.1230000000	80
55.1530000000	73
55.1830000000	63
55.2130000000	81
55.2430000000	55
55.2730000000	53
55.3030000000	57
55.3330000000	66
55.3630000000	60
55.3930000000	68
55.4230000000	64
55.4530000000	64
55.4830000000	54
55.5130000000	62
55.5430000000	72
55.5730000000	72
55.6030000000	62
55.6330000000	44
55.6630000000	62
55.6930000000	59
55.7230000000	60
55.7530000000	60
55.7830000000	45
55.8130000000	57
55.8430000000	78
55.8730000000	57
55.9030000000	62
55.9330000000	53
55.9630000000	66
55.9930000000	54
56.0230000000	63
56.0530000000	69
56.0830000000	61
56.1130000000	67
56.1430000000	64
56.1730000000	69
56.2030000000	61
56.2330000000	47
56.2630000000	50
56.2930000000	48
56.3230000000	54
56.3530000000	65
56.3830000000	44
56.4130000000	58
56.4430000000	58
56.4730000000	54
56.5030000000	56
56.5330000000	61
56.5630000000	49
56.5930000000	55
56.6230000000	64
56.6530000000	59
56.6830000000	62
56.7130000000	59
56.7430000000	56
56.7730000000	46
56.8030000000	56
56.8330000000	63
56.8630000000	56
56.8930000000	52
56.9230000000	55
56.9530000000	55
56.9830000000	52
57.0130000000	62
57.0430000000	54
57.0730000000	58
57.1030000000	57
57.1330000000	45
57.1630000000	53
57.1930000000	58
57.2230000000	62
57.2530000000	54
57.2830000000	61
57.3130000000	55
57.3430000000	59
57.3730000000	72
57.4030000000	52
57.4330000000	55
57.4630000000	66
57.4930000000	71
57.5230000000	48
57.5530000000	64
57.5830000000	47
57.6130000000	68
57.6430000000	50
57.6730000000	45
57.7030000000	59
57.7330000000	47
57.7630000000	60
57.7930000000	55
57.8230000000	58
57.8530000000	55
57.8830000000	55
57.9130000000	59
57.9430000000	51
57.9730000000	57
58.0030000000	61
58.0330000000	56
58.0630000000	65
58.0930000000	58
58.1230000000	39
58.1530000000	50
58.1830000000	59
58.2130000000	58
58.2430000000	50
58.2730000000	64
58.3030000000	50
58.3330000000	51
58.3630000000	55
58.3930000000	56
58.4230000000	54
58.4530000000	55
58.4830000000	61
58.5130000000	47
58.5430000000	54
58.5730000000	61
58.6030000000	67
58.6330000000	37
58.6630000000	46
58.6930000000	48
58.7230000000	54
58.7530000000	54
58.7830000000	62
58.8130000000	38
58.8430000000	54
58.8730000000	39
58.9030000000	49
58.9330000000	58
58.9630000000	60
58.9930000000	53
59.0230000000	43
59.0530000000	53
59.0830000000	61
59.1130000000	64
59.1430000000	57
59.1730000000	55
59.2030000000	60
59.2330000000	52
59.2630000000	61
59.2930000000	61
59.3230000000	58
59.3530000000	48
59.3830000000	49
59.4130000000	64
59.4430000000	59
59.4730000000	64
59.5030000000	55
59.5330000000	63
59.5630000000	47
59.5930000000	55
59.6230000000	58
59.6530000000	43
59.6830000000	55
59.7130000000	63
59.7430000000	60
59.7730000000	53
59.8030000000	49
59.8330000000	38
59.8630000000	60
59.8930000000	55
59.9230000000	62
59.9530000000	59
59.9830000000	71
60.0130000000	55
60.0430000000	70
60.0730000000	46
60.1030000000	55
60.1330000000	69
60.1630000000	61
60.1930000000	51
60.2230000000	50
60.2530000000	49
60.2830000000	61
60.3130000000	56
60.3430000000	50
60.3730000000	50
60.4030000000	67
60.4330000000	45
60.4630000000	52
60.4930000000	64
60.5230000000	59
60.5530000000	57
60.5830000000	57
60.6130000000	58
60.6430000000	57
60.6730000000	47
60.7030000000	56
60.7330000000	53
60.7630000000	60
60.7930000000	42
60.8230000000	43
60.8530000000	53
60.8830000000	54
60.9130000000	52
60.9430000000	52
60.9730000000	52
61.0030000000	32
61.0330000000	48
61.0630000000	47
61.0930000000	47
61.1230000000	44
61.1530000000	38
61.1830000000	59
61.2130000000	46
61.2430000000	58
61.2730000000	51
61.3030000000	56
61.3330000000	57
61.3630000000	54
61.3930000000	60
61.4230000000	63
61.4530000000	61
61.4830000000	34
61.5130000000	39
61.5430000000	44
61.5730000000	63
61.6030000000	44
61.6330000000	42
61.6630000000	55
61.6930000000	51
61.7230000000	39
61.7530000000	70
61.7830000000	51
61.8130000000	43
61.8430000000	52
61.8730000000	48
61.9030000000	56
61.9330000000	42
61.9630000000	57
61.9930000000	46
62.0230000000	57
62.0530000000	50
62.0830000000	55
62.1130000000	53
62.1430000000	46
62.1730000000	38
62.2030000000	48
62.2330000000	53
62.2630000000	46
62.2930000000	45
62.3230000000	54
62.3530000000	39
62.3830000000	45
62.4130000000	40
62.4430000000	46
62.4730000000	48
62.5030000000	64
62.5330000000	48
62.5630000000	49
62.5930000000	50
62.6230000000	39
62.6530000000	63
62.6830000000	52
62.7130000000	51
62.7430000000	53
62.7730000000	48
62.8030000000	50
62.8330000000	49
62.8630000000	47
62.8930000000	47
62.9230000000	51
62.9530000000	44
62.9830000000	46
63.0130000000	52
63.0430000000	56
63.0730000000	35
63.1030000000	41
63.1330000000	50
63.1630000000	56
63.1930000000	54
63.2230000000	50
63.2530000000	49
63.2830000000	46
63.3130000000	49
63.3430000000	58
63.3730000000	62
63.4030000000	49
63.4330000000	45
63.4630000000	54
63.4930000000	53
63.5230000000	56
63.5530000000	49
63.5830000000	45
63.6130000000	42
63.6430000000	51
63.6730000000	52
63.7030000000	38
63.7330000000	41
63.7630000000	43
63.7930000000	51
63.8230000000	46
63.8530000000	44
63.8830000000	50
63.9130000000	44
63.9430000000	44
63.9730000000	51
64.0030000000	42
64.0330000000	51
64.0630000000	41
64.0930000000	48
64.1230000000	61
64.1530000000	57
64.1830000000	35
64.2130000000	60
64.2430000000	56
64.2730000000	39
64.3030000000	46
64.3330000000	43
64.3630000000	46
64.3930000000	53
64.4230000000	54
64.4530000000	57
64.4830000000	41
64.5130000000	47
64.5430000000	48
64.5730000000	44
64.6030000000	38
64.6330000000	56
64.6630000000	42
64.6930000000	40
64.7230000000	57
64.7530000000	40
64.7830000000	49
64.8130000000	49
64.8430000000	39
64.8730000000	40
64.9030000000	46
64.9330000000	44
64.9630000000	46
64.9930000000	47
65.0230000000	53
65.0530000000	46
65.0830000000	32
65.1130000000	49
65.1430000000	64
65.1730000000	35
65.2030000000	41
65.2330000000	44
65.2630000000	41
65.2930000000	47
65.3230000000	39
65.3530000000	53
65.3830000000	46
65.4130000000	62
65.4430000000	52
65.4730000000	65
65.5030000000	38
65.5330000000	42
65.5630000000	48
65.5930000000	47
65.6230000000	49
65.6530000000	56
65.6830000000	41
65.7130000000	54
65.7430000000	50
65.7730000000	37
65.8030000000	43
65.8330000000	55
65.8630000000	54
65.8930000000	35
65.9230000000	42
65.9530000000	40
65.9830000000	52
66.0130000000	44
66.0430000000	47
66.0730000000	44
66.1030000000	54
66.1330000000	58
66.1630000000	48
66.1930000000	52
66.2230000000	48
66.2530000000	54
66.2830000000	55
66.3130000000	54
66.3430000000	54
66.3730000000	43
66.4030000000	44
66.4330000000	46
66.4630000000	42
66.4930000000	50
66.5230000000	51
66.5530000000	46
66.5830000000	48
66.6130000000	50
66.6430000000	50
66.6730000000	61
66.7030000000	64
66.7330000000	38
66.7630000000	45
66.7930000000	53
66.8230000000	53
66.8530000000	43
66.8830000000	46
66.9130000000	44
66.9430000000	44
66.9730000000	35
67.0030000000	42
67.0330000000	41
67.0630000000	41
67.0930000000	58
67.1230000000	54
67.1530000000	41
67.1830000000	45
67.2130000000	49
67.2430000000	48
67.2730000000	66
67.3030000000	41
67.3330000000	41
67.3630000000	60
67.3930000000	53
67.4230000000	48
67.4530000000	37
67.4830000000	36
67.5130000000	55
67.5430000000	49
67.5730000000	56
67.6030000000	53
67.6330000000	40
67.6630000000	33
67.6930000000	41
67.7230000000	53
67.7530000000	43
67.7830000000	48
67.8130000000	64
67.8430000000	50
67.8730000000	30
67.9030000000	45
67.9330000000	49
67.9630000000	50
67.9930000000	45
68.0230000000	44
68.0530000000	54
68.0830000000	49
68.1130000000	48
68.1430000000	46
68.1730000000	57
68.2030000000	40
68.2330000000	41
68.2630000000	52
68.2930000000	60
68.3230000000	51
68.3530000000	53
68.3830000000	53
68.4130000000	55
68.4430000000	52
68.4730000000	39
68.5030000000	56
68.5330000000	45
68.5630000000	41
68.5930000000	43
68.6230000000	49
68.6530000000	50
68.6830000000	31
68.7130000000	43
68.7430000000	49
68.7730000000	51
68.8030000000	46
68.8330000000	46
68.8630000000	50
68.8930000000	44
68.9230000000	41
68.9530000000	41
68.9830000000	55
69.0130000000	40
69.0430000000	70
69.0730000000	48
69.1030000000	40
69.1330000000	42
69.1630000000	46
69.1930000000	46
69.2230000000	40
69.2530000000	44
69.2830000000	42
69.3130000000	44
69.3430000000	54
69.3730000000	46
69.4030000000	52
69.4330000000	65
69.4630000000	35
69.4930000000	46
69.5230000000	56
69.5530000000	55
69.5830000000	47
69.6130000000	56
69.6430000000	56
69.6730000000	44
69.7030000000	39
69.7330000000	45
69.7630000000	58
69.7930000000	58
69.8230000000	51
69.8530000000	42
69.8830000000	54
69.9130000000	44
69.9430000000	48
69.9730000000	49
70.0030000000	43
70.0330000000	53
70.0630000000	38
70.0930000000	46
70.1230000000	40
70.1530000000	48
70.1830000000	46
70.2130000000	47
70.2430000000	37
70.2730000000	55
70.3030000000	40
70.3330000000	32
70.3630000000	48
70.3930000000	55
70.4230000000	43
70.4530000000	43
70.4830000000	44
70.5130000000	37
70.5430000000	52
70.5730000000	53
70.6030000000	55
70.6330000000	50
70.6630000000	42
70.6930000000	53
70.7230000000	42
70.7530000000	52
70.7830000000	60
70.8130000000	58
70.8430000000	48
70.8730000000	39
70.9030000000	44
70.9330000000	53
70.9630000000	54
70.9930000000	55
71.0230000000	57
71.0530000000	45
71.0830000000	46
71.1130000000	42
71.1430000000	41
71.1730000000	60
71.2030000000	45
71.2330000000	43
71.2630000000	47
71.2930000000	42
71.3230000000	32
71.3530000000	40
71.3830000000	43
71.4130000000	49
71.4430000000	47
71.4730000000	43
71.5030000000	33
71.5330000000	53
71.5630000000	46
71.5930000000	44
71.6230000000	44
71.6530000000	43
71.6830000000	46
71.7130000000	47
71.7430000000	39
71.7730000000	63
71.8030000000	52
71.8330000000	52
71.8630000000	42
71.8930000000	56
71.9230000000	35
71.9530000000	37
71.9830000000	50
72.0130000000	57
72.0430000000	37
72.0730000000	49
72.1030000000	39
72.1330000000	44
72.1630000000	46
72.1930000000	37
72.2230000000	45
72.2530000000	40
72.2830000000	56
72.3130000000	44
72.3430000000	54
72.3730000000	53
72.4030000000	58
72.4330000000	49
72.4630000000	40
72.4930000000	46
72.5230000000	50
72.5530000000	57
72.5830000000	46
72.6130000000	52
72.6430000000	31
72.6730000000	45
72.7030000000	41
72.7330000000	51
72.7630000000	54
72.7930000000	46
72.8230000000	37
72.8530000000	39
72.8830000000	57
72.9130000000	40
72.9430000000	50
72.9730000000	44
73.0030000000	49
73.0330000000	35
73.0630000000	47
73.0930000000	38
73.1230000000	56
73.1530000000	55
73.1830000000	44
73.2130000000	35
73.2430000000	48
73.2730000000	46
73.3030000000	53
73.3330000000	35
73.3630000000	42
73.3930000000	47
73.4230000000	53
73.4530000000	44
73.4830000000	42
73.5130000000	50
73.5430000000	45
73.5730000000	40
73.6030000000	37
73.6330000000	36
73.6630000000	41
73.6930000000	48
73.7230000000	51
73.7530000000	48
73.7830000000	48
73.8130000000	48
73.8430000000	42
73.8730000000	45
73.9030000000	51
73.9330000000	44
73.9630000000	53
73.9930000000	44
74.0230000000	44
74.0530000000	36
74.0830000000	53
74.1130000000	49
74.1430000000	44
74.1730000000	38
74.2030000000	46
74.2330000000	50
74.2630000000	48
74.2930000000	40
74.3230000000	52
74.3530000000	51
74.3830000000	58
74.4130000000	42
74.4430000000	45
74.4730000000	49
74.5030000000	40
74.5330000000	35
74.5630000000	38
74.5930000000	53
74.6230000000	42
74.6530000000	41
74.6830000000	44
74.7130000000	45
74.7430000000	44
74.7730000000	41
74.8030000000	57
74.8330000000	51
74.8630000000	46
74.8930000000	38
74.9230000000	42
74.9530000000	41
74.9830000000	51
75.0130000000	53
75.0430000000	47
75.0730000000	38
75.1030000000	46
75.1330000000	31
75.1630000000	63
75.1930000000	43
75.2230000000	45
75.2530000000	46
75.2830000000	42
75.3130000000	42
75.3430000000	44
75.3730000000	46
75.4030000000	48
75.4330000000	50
75.4630000000	48
75.4930000000	47
75.5230000000	61
75.5530000000	62
75.5830000000	51
75.6130000000	60
75.6430000000	57
75.6730000000	50
75.7030000000	37
75.7330000000	52
75.7630000000	51
75.7930000000	59
75.8230000000	43
75.8530000000	51
75.8830000000	47
75.9130000000	44
75.9430000000	42
75.9730000000	50
76.0030000000	45
76.0330000000	48
76.0630000000	51
76.0930000000	44
76.1230000000	45
76.1530000000	47
76.1830000000	40
76.2130000000	48
76.2430000000	55
76.2730000000	42
76.3030000000	49
76.3330000000	56
76.3630000000	52
76.3930000000	48
76.4230000000	44
76.4530000000	51
76.4830000000	58
76.5130000000	38
76.5430000000	45
76.5730000000	54
76.6030000000	49
76.6330000000	51
76.6630000000	58
76.6930000000	35
76.7230000000	38
76.7530000000	45
76.7830000000	37
76.8130000000	50
76.8430000000	44
76.8730000000	46
76.9030000000	57
76.9330000000	51
76.9630000000	38
76.9930000000	41
77.0230000000	41
77.0530000000	46
77.0830000000	37
77.1130000000	50
77.1430000000	44
77.1730000000	50
77.2030000000	41
77.2330000000	44
77.2630000000	42
77.2930000000	35
77.3230000000	40
77.3530000000	54
77.3830000000	48
77.4130000000	37
77.4430000000	28
77.4730000000	53
77.5030000000	39
77.5330000000	47
77.5630000000	45
77.5930000000	49
77.6230000000	41
77.6530000000	53
77.6830000000	43
77.7130000000	39
77.7430000000	29
77.7730000000	43
77.8030000000	46
77.8330000000	40
77.8630000000	42
77.8930000000	36
77.9230000000	49
77.9530000000	45
77.9830000000	39
78.0130000000	44
78.0430000000	46
78.0730000000	38
78.1030000000	42
78.1330000000	43
78.1630000000	46
78.1930000000	50
78.2230000000	34
78.2530000000	27
78.2830000000	40
78.3130000000	37
78.3430000000	42
78.3730000000	46
78.4030000000	44
78.4330000000	47
78.4630000000	46
78.4930000000	58
78.5230000000	41
78.5530000000	39
78.5830000000	37
78.6130000000	38
78.6430000000	41
78.6730000000	32
78.7030000000	42
78.7330000000	36
78.7630000000	33
78.7930000000	32
78.8230000000	35
78.8530000000	35
78.8830000000	51
78.9130000000	39
78.9430000000	39
78.9730000000	45
79.0030000000	43
79.0330000000	44
79.0630000000	41
79.0930000000	35
79.1230000000	50
79.1530000000	46
79.1830000000	38
79.2130000000	56
79.2430000000	43
79.2730000000	33
79.3030000000	46
79.3330000000	36
79.3630000000	36
79.3930000000	39
79.4230000000	37
79.4530000000	38
79.4830000000	44
79.5130000000	35
79.5430000000	45
79.5730000000	51
79.6030000000	33
79.6330000000	27
79.6630000000	50
79.6930000000	38
79.7230000000	47
79.7530000000	57
79.7830000000	49
79.8130000000	45
79.8430000000	42
79.8730000000	47
79.9030000000	40
79.9330000000	36
79.9630000000	31
79.9930000000	50
80.0230000000	29
80.0530000000	41
80.0830000000	40
80.1130000000	50
80.1430000000	47
80.1730000000	53
80.2030000000	48
80.2330000000	44
80.2630000000	41
80.2930000000	48
80.3230000000	43
80.3530000000	48
80.3830000000	42
80.4130000000	46
80.4430000000	40
80.4730000000	51
80.5030000000	50
80.5330000000	43
80.5630000000	42
80.5930000000	43
80.6230000000	41
80.6530000000	46
80.6830000000	45
80.7130000000	40
80.7430000000	38
80.7730000000	39
80.8030000000	47
80.8330000000	30
80.8630000000	48
80.8930000000	44
80.9230000000	40
80.9530000000	52
80.9830000000	42
81.0130000000	39
81.0430000000	50
81.0730000000	37
81.1030000000	41
81.1330000000	42
81.1630000000	38
81.1930000000	44
81.2230000000	39
81.2530000000	45
81.2830000000	44
81.3130000000	43
81.3430000000	36
81.3730000000	56
81.4030000000	54
81.4330000000	50
81.4630000000	43
81.4930000000	37
81.5230000000	46
81.5530000000	38
81.5830000000	37
81.6130000000	44
81.6430000000	40
81.6730000000	35
81.7030000000	38
81.7330000000	31
81.7630000000	40
81.7930000000	35
81.8230000000	41
81.8530000000	40
81.8830000000	50
81.9130000000	35
81.9430000000	36
81.9730000000	40
82.0030000000	44
82.0330000000	48
82.0630000000	35
82.0930000000	42
82.1230000000	34
82.1530000000	35
82.1830000000	34
82.2130000000	44
82.2430000000	35
82.2730000000	33
82.3030000000	46
82.3330000000	39
82.3630000000	35
82.3930000000	44
82.4230000000	39
82.4530000000	35
82.4830000000	44
82.5130000000	41
82.5430000000	31
82.5730000000	34
82.6030000000	47
82.6330000000	43
82.6630000000	45
82.6930000000	32
82.7230000000	35
82.7530000000	42
82.7830000000	50
82.8130000000	34
82.8430000000	37
82.8730000000	34
82.9030000000	48
82.9330000000	41
82.9630000000	36
82.9930000000	45
83.0230000000	33
83.0530000000	35
83.0830000000	32
83.1130000000	46
83.1430000000	42
83.1730000000	34
83.2030000000	33
83.2330000000	37
83.2630000000	48
83.2930000000	36
83.3230000000	42
83.3530000000	48
83.3830000000	34
83.4130000000	44
83.4430000000	33
83.4730000000	44
83.5030000000	41
83.5330000000	35
83.5630000000	33
83.5930000000	38
83.6230000000	35
83.6530000000	42
83.6830000000	29
83.7130000000	30
83.7430000000	34
83.7730000000	36
83.8030000000	36
83.8330000000	50
83.8630000000	44
83.8930000000	32
83.9230000000	53
83.9530000000	39
83.9830000000	33
84.0130000000	43
84.0430000000	53
84.0730000000	41
84.1030000000	43
84.1330000000	29
84.1630000000	36
84.1930000000	36
84.2230000000	33
84.2530000000	37
84.2830000000	44
84.3130000000	36
84.3430000000	46
84.3730000000	28
84.4030000000	40
84.4330000000	51
84.4630000000	42
84.4930000000	42
84.5230000000	38
84.5530000000	44
84.5830000000	40
84.6130000000	41
84.6430000000	46
84.6730000000	32
84.7030000000	29
84.7330000000	43
84.7630000000	40
84.7930000000	34
84.8230000000	42
84.8530000000	27
84.8830000000	31
84.9130000000	37
84.9430000000	46
84.9730000000	31
85.0030000000	44
85.0330000000	38
85.0630000000	42
85.0930000000	45
85.1230000000	41
85.1530000000	43
85.1830000000	31
85.2130000000	44
85.2430000000	34
85.2730000000	39
85.3030000000	34
85.3330000000	37
85.3630000000	47
85.3930000000	46
85.4230000000	41
85.4530000000	44
85.4830000000	51
85.5130000000	45
85.5430000000	35
85.5730000000	37
85.6030000000	36
85.6330000000	36
85.6630000000	44
85.6930000000	35
85.7230000000	34
85.7530000000	39
85.7830000000	49
85.8130000000	40
85.8430000000	37
85.8730000000	43
85.9030000000	39
85.9330000000	47
85.9630000000	32
85.9930000000	37
86.0230000000	43
86.0530000000	42
86.0830000000	37
86.1130000000	43
86.1430000000	40
86.1730000000	40
86.2030000000	28
86.2330000000	32
86.2630000000	36
86.2930000000	31
86.3230000000	43
86.3530000000	36
86.3830000000	28
86.4130000000	36
86.4430000000	41
86.4730000000	36
86.5030000000	36
86.5330000000	48
86.5630000000	39
86.5930000000	45
86.6230000000	34
86.6530000000	38
86.6830000000	33
86.7130000000	37
86.7430000000	41
86.7730000000	37
86.8030000000	32
86.8330000000	38
86.8630000000	47
86.8930000000	39
86.9230000000	32
86.9530000000	33
86.9830000000	34
87.0130000000	32
87.0430000000	38
87.0730000000	32
87.1030000000	31
87.1330000000	40
87.1630000000	44
87.1930000000	47
87.2230000000	37
87.2530000000	39
87.2830000000	49
87.3130000000	37
87.3430000000	46
87.3730000000	45
87.4030000000	30
87.4330000000	42
87.4630000000	57
87.4930000000	35
87.5230000000	30
87.5530000000	39
87.5830000000	35
87.6130000000	37
87.6430000000	44
87.6730000000	38
87.7030000000	46
87.7330000000	38
87.7630000000	47
87.7930000000	35
87.8230000000	45
87.8530000000	48
87.8830000000	41
87.9130000000	42
87.9430000000	34
87.9730000000	54
88.0030000000	42
88.0330000000	43
88.0630000000	38
88.0930000000	49
88.1230000000	41
88.1530000000	43
88.1830000000	41
88.2130000000	44
88.2430000000	35
88.2730000000	28
88.3030000000	41
88.3330000000	34
88.3630000000	32
88.3930000000	41
88.4230000000	38
88.4530000000	25
88.4830000000	42
88.5130000000	43
88.5430000000	33
88.5730000000	41
88.6030000000	43
88.6330000000	39
88.6630000000	42
88.6930000000	35
88.7230000000	24
88.7530000000	50
88.7830000000	43
88.8130000000	40
88.8430000000	49
88.8730000000	37
88.9030000000	40
88.9330000000	40
88.9630000000	52
88.9930000000	33
89.0230000000	36
89.0530000000	55
89.0830000000	37
89.1130000000	42
89.1430000000	42
89.1730000000	37
89.2030000000	42
89.2330000000	39
89.2630000000	44
89.2930000000	59
89.3230000000	40
89.3530000000	34
89.3830000000	41
89.4130000000	39
89.4430000000	37
89.4730000000	33
89.5030000000	43
89.5330000000	49
89.5630000000	37
89.5930000000	43
89.6230000000	40
89.6530000000	29
89.6830000000	29
89.7130000000	35
89.7430000000	43
89.7730000000	48
89.8030000000	44
89.8330000000	36
89.8630000000	43
89.8930000000	54
89.9230000000	39
89.9530000000	47
89.9830000000	48
90.0130000000	39
90.0430000000	44
90.0730000000	31
90.1030000000	42
90.1330000000	34
90.1630000000	37
90.1930000000	34
90.2230000000	35
90.2530000000	44
90.2830000000	36
90.3130000000	39
90.3430000000	37
90.3730000000	33
90.4030000000	51
90.4330000000	45
90.4630000000	41
90.4930000000	44
90.5230000000	44
90.5530000000	48
90.5830000000	36
90.6130000000	40
90.6430000000	42
90.6730000000	31
90.7030000000	39
90.7330000000	31
90.7630000000	44
90.7930000000	33
90.8230000000	41
90.8530000000	51
90.8830000000	33
90.9130000000	29
90.9430000000	39
90.9730000000	36
91.0030000000	29
91.0330000000	33
91.0630000000	36
91.0930000000	37
91.1230000000	37
91.1530000000	42
91.1830000000	41
91.2130000000	49
91.2430000000	47
91.2730000000	31
91.3030000000	45
91.3330000000	49
91.3630000000	45
91.3930000000	36
91.4230000000	31
91.4530000000	31
91.4830000000	42
91.5130000000	50
91.5430000000	43
91.5730000000	37
91.6030000000	34
91.6330000000	37
91.6630000000	39
91.6930000000	35
91.7230000000	37
91.7530000000	37
91.7830000000	43
91.8130000000	50
91.8430000000	32
91.8730000000	41
91.9030000000	33
91.9330000000	49
91.9630000000	42
91.9930000000	40
92.0230000000	37
92.0530000000	37
92.0830000000	37
92.1130000000	34
92.1430000000	41
92.1730000000	41
92.2030000000	39
92.2330000000	41
92.2630000000	41
92.2930000000	37
92.3230000000	37
92.3530000000	35
92.3830000000	37
92.4130000000	40
92.4430000000	39
92.4730000000	37
92.5030000000	35
92.5330000000	39
92.5630000000	48
92.5930000000	33
92.6230000000	42
92.6530000000	43
92.6830000000	42
92.7130000000	47
92.7430000000	49
92.7730000000	40
92.8030000000	37
92.8330000000	39
92.8630000000	51
92.8930000000	40
92.9230000000	43
92.9530000000	39
92.9830000000	36
93.0130000000	42
93.0430000000	44
93.0730000000	41
93.1030000000	48
93.1330000000	42
93.1630000000	41
93.1930000000	45
93.2230000000	43
93.2530000000	39
93.2830000000	40
93.3130000000	50
93.3430000000	38
93.3730000000	39
93.4030000000	47
93.4330000000	43
93.4630000000	41
93.4930000000	47
93.5230000000	40
93.5530000000	41
93.5830000000	42
93.6130000000	42
93.6430000000	29
93.6730000000	46
93.7030000000	40
93.7330000000	55
93.7630000000	49
93.7930000000	36
93.8230000000	49
93.8530000000	46
93.8830000000	52
93.9130000000	45
93.9430000000	51
93.9730000000	39
94.0030000000	34
94.0330000000	41
94.0630000000	39
94.0930000000	43
94.1230000000	32
94.1530000000	50
94.1830000000	36
94.2130000000	31
94.2430000000	30
94.2730000000	41
94.3030000000	42
94.3330000000	38
94.3630000000	36
94.3930000000	39
94.4230000000	22
94.4530000000	44
94.4830000000	37
94.5130000000	42
94.5430000000	47
94.5730000000	34
94.6030000000	38
94.6330000000	50
94.6630000000	47
94.6930000000	36
94.7230000000	31
94.7530000000	35
94.7830000000	37
94.8130000000	37
94.8430000000	41
94.8730000000	36
94.9030000000	37
94.9330000000	42
94.9630000000	49
94.9930000000	39
95.0230000000	36
95.0530000000	39
95.0830000000	40
95.1130000000	39
95.1430000000	41
95.1730000000	30
95.2030000000	47
95.2330000000	30
95.2630000000	44
95.2930000000	43
95.3230000000	45
95.3530000000	45
95.3830000000	43
95.4130000000	36
95.4430000000	29
95.4730000000	49
95.5030000000	45
95.5330000000	40
95.5630000000	40
95.5930000000	45
95.6230000000	41
95.6530000000	30
95.6830000000	38
95.7130000000	43
95.7430000000	39
95.7730000000	40
95.8030000000	41
95.8330000000	43
95.8630000000	37
95.8930000000	41
95.9230000000	31
95.9530000000	35
95.9830000000	40
96.0130000000	34
96.0430000000	38
96.0730000000	38
96.1030000000	34
96.1330000000	41
96.1630000000	35
96.1930000000	44
96.2230000000	48
96.2530000000	34
96.2830000000	37
96.3130000000	41
96.3430000000	36
96.3730000000	40
96.4030000000	46
96.4330000000	47
96.4630000000	39
96.4930000000	44
96.5230000000	48
96.5530000000	33
96.5830000000	42
96.6130000000	40
96.6430000000	36
96.6730000000	36
96.7030000000	38
96.7330000000	41
96.7630000000	40
96.7930000000	43
96.8230000000	51
96.8530000000	44
96.8830000000	44
96.9130000000	33
96.9430000000	36
96.9730000000	39
97.0030000000	40
97.0330000000	41
97.0630000000	41
97.0930000000	43
97.1230000000	38
97.1530000000	36
97.1830000000	31
97.2130000000	37
97.2430000000	48
97.2730000000	47
97.3030000000	37
97.3330000000	43
97.3630000000	32
97.3930000000	27
97.4230000000	38
97.4530000000	45
97.4830000000	51
97.5130000000	48
97.5430000000	42
97.5730000000	45
97.6030000000	43
97.6330000000	54
97.6630000000	37
97.6930000000	45
97.7230000000	40
97.7530000000	37
97.7830000000	29
97.8130000000	44
97.8430000000	41
97.8730000000	45
97.9030000000	54
97.9330000000	33
97.9630000000	31
97.9930000000	50
98.0230000000	38
98.0530000000	49
98.0830000000	48
98.1130000000	46
98.1430000000	48
98.1730000000	32
98.2030000000	44
98.2330000000	45
98.2630000000	43
98.2930000000	43
98.3230000000	39
98.3530000000	31
98.3830000000	48
98.4130000000	48
98.4430000000	34
98.4730000000	39
98.5030000000	45
98.5330000000	43
98.5630000000	48
98.5930000000	41
98.6230000000	49
98.6530000000	46
98.6830000000	38
98.7130000000	51
98.7430000000	49
98.7730000000	38
98.8030000000	41
98.8330000000	42
98.8630000000	36
98.8930000000	36
98.9230000000	34
98.9530000000	45
98.9830000000	32
99.0130000000	38
99.0430000000	45
99.0730000000	35
99.1030000000	38
99.1330000000	53
99.1630000000	39
99.1930000000	36
99.2230000000	45
99.2530000000	39
99.2830000000	45
99.3130000000	46
99.3430000000	27
99.3730000000	37
99.4030000000	39
99.4330000000	46
99.4630000000	42
99.4930000000	34
99.5230000000	49
99.5530000000	37
99.5830000000	43
99.6130000000	40
99.6430000000	48
99.6730000000	54
99.7030000000	53
99.7330000000	45
99.7630000000	37
99.7930000000	57
99.8230000000	33
99.8530000000	37
99.8830000000	51
99.9130000000	49
99.9430000000	52
99.9730000000	48
100.0030000000	41
100.0330000000	49
100.0630000000	41
100.0930000000	46
100.1230000000	43
100.1530000000	38
100.1830000000	42
100.2130000000	38
100.2430000000	40
100.2730000000	39
100.3030000000	37
100.3330000000	43
100.3630000000	37
100.3930000000	42
100.4230000000	46
100.4530000000	35
100.4830000000	43
100.5130000000	40
100.5430000000	32
100.5730000000	42
100.6030000000	37
100.6330000000	36
100.6630000000	39
100.6930000000	47
100.7230000000	47
100.7530000000	35
100.7830000000	32
100.8130000000	47
100.8430000000	44
100.8730000000	38
100.9030000000	36
100.9330000000	42
100.9630000000	34
100.9930000000	40
101.0230000000	46
101.0530000000	56
101.0830000000	44
101.1130000000	43
101.1430000000	49
101.1730000000	45
101.2030000000	40
101.2330000000	39
101.2630000000	40
101.2930000000	37
101.3230000000	45
101.3530000000	43
101.3830000000	22
101.4130000000	29
101.4430000000	32
101.4730000000	33
101.5030000000	41
101.5330000000	38
101.5630000000	37
101.5930000000	33
101.6230000000	39
101.6530000000	44
101.6830000000	36
101.7130000000	37
101.7430000000	46
101.7730000000	42
101.8030000000	43
101.8330000000	50
101.8630000000	43
101.8930000000	43
101.9230000000	46
101.9530000000	41
101.9830000000	39
102.0130000000	45
102.0430000000	35
102.0730000000	48
102.1030000000	39
102.1330000000	44
102.1630000000	39
102.1930000000	37
102.2230000000	40
102.2530000000	43
102.2830000000	56
102.3130000000	44
102.3430000000	38
102.3730000000	41
102.4030000000	44
102.4330000000	31
102.4630000000	34
102.4930000000	43
102.5230000000	42
102.5530000000	41
102.5830000000	39
102.6130000000	34
102.6430000000	39
102.6730000000	46
102.7030000000	37
102.7330000000	33
102.7630000000	44
102.7930000000	48
102.8230000000	28
102.8530000000	47
102.8830000000	44
102.9130000000	45
102.9430000000	43
102.9730000000	39
103.0030000000	46
103.0330000000	47
103.0630000000	40
103.0930000000	32
103.1230000000	33
103.1530000000	28
103.1830000000	34
103.2130000000	35
103.2430000000	41
103.2730000000	46
103.3030000000	32
103.3330000000	33
103.3630000000	35
103.3930000000	39
103.4230000000	47
103.4530000000	54
103.4830000000	44
103.5130000000	38
103.5430000000	31
103.5730000000	31
103.6030000000	28
103.6330000000	31
103.6630000000	34
103.6930000000	31
103.7230000000	45
103.7530000000	57
103.7830000000	45
103.8130000000	31
103.8430000000	40
103.8730000000	44
103.9030000000	45
103.9330000000	43
103.9630000000	47
103.9930000000	46
104.0230000000	40
104.0530000000	36
104.0830000000	43
104.1130000000	39
104.1430000000	44
104.1730000000	41
104.2030000000	46
104.2330000000	42
104.2630000000	40
104.2930000000	29
104.3230000000	41
104.3530000000	31
104.3830000000	49
104.4130000000	39
104.4430000000	40
104.4730000000	40
104.5030000000	38
104.5330000000	34
104.5630000000	40
104.5930000000	45
104.6230000000	41
104.6530000000	43
104.6830000000	37
104.7130000000	50
104.7430000000	42
104.7730000000	42
104.8030000000	39
104.8330000000	31
104.8630000000	39
104.8930000000	43
104.9230000000	36
104.9530000000	37
104.9830000000	40
105.0130000000	39
105.0430000000	40
105.0730000000	40
105.1030000000	45
105.1330000000	47
105.1630000000	39
105.1930000000	43
105.2230000000	55
105.2530000000	38
105.2830000000	27
105.3130000000	44
105.3430000000	31
105.3730000000	36
105.4030000000	42
105.4330000000	39
105.4630000000	43
105.4930000000	28
105.5230000000	39
105.5530000000	36
105.5830000000	45
105.6130000000	37
105.6430000000	35
105.6730000000	42
105.7030000000	38
105.7330000000	42
105.7630000000	39
105.7930000000	38
105.8230000000	40
105.8530000000	34
105.8830000000	33
105.9130000000	30
105.9430000000	38
105.9730000000	39
106.0030000000	28
106.0330000000	39
106.0630000000	39
106.0930000000	37
106.1230000000	39
106.1530000000	42
106.1830000000	41
106.2130000000	34
106.2430000000	35
106.2730000000	43
106.3030000000	33
106.3330000000	37
106.3630000000	44
106.3930000000	37
106.4230000000	35
106.4530000000	30
106.4830000000	39
106.5130000000	27
106.5430000000	32
106.5730000000	35
106.6030000000	47
106.6330000000	37
106.6630000000	39
106.6930000000	43
106.7230000000	35
106.7530000000	30
106.7830000000	43
106.8130000000	34
106.8430000000	34
106.8730000000	38
106.9030000000	26
106.9330000000	40
106.9630000000	39
106.9930000000	35
107.0230000000	43
107.0530000000	46
107.0830000000	42
107.1130000000	27
107.1430000000	34
107.1730000000	39
107.2030000000	37
107.2330000000	33
107.2630000000	36
107.2930000000	41
107.3230000000	39
107.3530000000	39
107.3830000000	32
107.4130000000	42
107.4430000000	38
107.4730000000	47
107.5030000000	39
107.5330000000	36
107.5630000000	42
107.5930000000	42
107.6230000000	39
107.6530000000	40
107.6830000000	42
107.7130000000	29
107.7430000000	32
107.7730000000	31
107.8030000000	32
107.8330000000	39
107.8630000000	48
107.8930000000	52
107.9230000000	43
107.9530000000	36
107.9830000000	28
108.0130000000	45
108.0430000000	37
108.0730000000	42
108.1030000000	33
108.1330000000	34
108.1630000000	34
108.1930000000	39
108.2230000000	32
108.2530000000	33
108.2830000000	39
108.3130000000	47
108.3430000000	38
108.3730000000	28
108.4030000000	30
108.4330000000	52
108.4630000000	47
108.4930000000	30
108.5230000000	37
108.5530000000	46
108.5830000000	33
108.6130000000	46
108.6430000000	45
108.6730000000	45
108.7030000000	44
108.7330000000	31
108.7630000000	43
108.7930000000	37
108.8230000000	35
108.8530000000	40
108.8830000000	35
108.9130000000	25
108.9430000000	38
108.9730000000	44
109.0030000000	41
109.0330000000	31
109.0630000000	38
109.0930000000	52
109.1230000000	31
109.1530000000	48
109.1830000000	46
109.2130000000	34
109.2430000000	41
109.2730000000	30
109.3030000000	46
109.3330000000	47
109.3630000000	37
109.3930000000	53
109.4230000000	43
109.4530000000	49
109.4830000000	38
109.5130000000	48
109.5430000000	33
109.5730000000	38
109.6030000000	36
109.6330000000	35
109.6630000000	38
109.6930000000	48
109.7230000000	36
109.7530000000	42
109.7830000000	33
109.8130000000	39
109.8430000000	40
109.8730000000	49
109.9030000000	39
109.9330000000	38
109.9630000000	39
109.9930000000	34
110.0230000000	33
110.0530000000	45
110.0830000000	35
110.1130000000	35
110.1430000000	43
110.1730000000	32
110.2030000000	47
110.2330000000	41
110.2630000000	33
110.2930000000	39
110.3230000000	36
110.3530000000	42
110.3830000000	42
110.4130000000	38
110.4430000000	45
110.4730000000	47
110.5030000000	47
110.5330000000	43
110.5630000000	44
110.5930000000	37
110.6230000000	37
110.6530000000	35
110.6830000000	44
110.7130000000	33
110.7430000000	40
110.7730000000	48
110.8030000000	42
110.8330000000	34
110.8630000000	41
110.8930000000	38
110.9230000000	31
110.9530000000	40
110.9830000000	39
111.0130000000	44
111.0430000000	37
111.0730000000	36
111.1030000000	43
111.1330000000	40
111.1630000000	40
111.1930000000	44
111.2230000000	47
111.2530000000	40
111.2830000000	32
111.3130000000	29
111.3430000000	45
111.3730000000	29
111.4030000000	32
111.4330000000	33
111.4630000000	42
111.4930000000	47
111.5230000000	37
111.5530000000	42
111.5830000000	41
111.6130000000	33
111.6430000000	43
111.6730000000	38
111.7030000000	31
111.7330000000	36
111.7630000000	32
111.7930000000	41
111.8230000000	35
111.8530000000	50
111.8830000000	43
111.9130000000	40
111.9430000000	45
111.9730000000	38
112.0030000000	32
112.0330000000	37
112.0630000000	36
112.0930000000	47
112.1230000000	43
112.1530000000	44
112.1830000000	33
112.2130000000	54
112.2430000000	40
112.2730000000	44
112.3030000000	33
112.3330000000	42
112.3630000000	33
112.3930000000	45
112.4230000000	43
112.4530000000	37
112.4830000000	34
112.5130000000	43
112.5430000000	36
112.5730000000	34
112.6030000000	31
112.6330000000	49
112.6630000000	47
112.6930000000	44
112.7230000000	49
112.7530000000	41
112.7830000000	31
112.8130000000	36
112.8430000000	36
112.8730000000	44
112.9030000000	48
112.9330000000	53
112.9630000000	48
112.9930000000	36
113.0230000000	42
113.0530000000	51
113.0830000000	35
113.1130000000	48
113.1430000000	35
113.1730000000	44
113.2030000000	39
113.2330000000	40
113.2630000000	40
113.2930000000	45
113.3230000000	46
113.3530000000	38
113.3830000000	35
113.4130000000	37
113.4430000000	46
113.4730000000	54
113.5030000000	40
113.5330000000	29
113.5630000000	51
113.5930000000	39
113.6230000000	40
113.6530000000	32
113.6830000000	41
113.7130000000	45
113.7430000000	28
113.7730000000	40
113.8030000000	35
113.8330000000	41
113.8630000000	43
113.8930000000	40
113.9230000000	50
113.9530000000	46
113.9830000000	34
114.0130000000	37
114.0430000000	56
114.0730000000	45
114.1030000000	32
114.1330000000	37
114.1630000000	40
114.1930000000	37
114.2230000000	33
114.2530000000	39
114.2830000000	45
114.3130000000	42
114.3430000000	43
114.3730000000	38
114.4030000000	36
114.4330000000	48
114.4630000000	1
114.4930000000	1
114.5230000000	1
114.5530000000	1
114.5830000000	1
