0.3130000000	1
0.3430000000	1
0.3730000000	1
0.4030000000	1
0.4330000000	1
0.4630000000	1
0.4930000000	1
0.5230000000	1
0.5530000000	1
0.5830000000	1
0.6130000000	1
0.6430000000	2
0.6730000000	1
0.7030000000	2
0.7330000000	1
0.7630000000	1
0.7930000000	1
0.8230000000	1
0.8530000000	1
0.8830000000	1
0.9130000000	1
0.9430000000	1
0.9730000000	1
1.0030000000	1
1.0330000000	1
1.0630000000	1
1.0930000000	2
1.1230000000	2
1.1530000000	1
1.1830000000	2
1.2130000000	2
1.2430000000	1
1.2730000000	1
1.3030000000	1
1.3330000000	1
1.3630000000	1
1.3930000000	2
1.4230000000	1
1.4530000000	1
1.4830000000	3
1.5130000000	2
1.5430000000	1
1.5730000000	1
1.6030000000	2
1.6330000000	1
1.6630000000	1
1.6930000000	1
1.7230000000	1
1.7530000000	2
1.7830000000	1
1.8130000000	1
1.8430000000	2
1.8730000000	1
1.9030000000	3
1.9330000000	2
1.9630000000	2
1.9930000000	1
2.0230000000	1
2.0530000000	1
2.0830000000	1
2.1130000000	1
2.1430000000	1
2.1730000000	1
2.2030000000	1
2.2330000000	1
2.2630000000	1
2.2930000000	1
2.3230000000	1
2.3530000000	2
2.3830000000	1
2.4130000000	1
2.4430000000	2
2.4730000000	2
2.5030000000	1
2.5330000000	1
2.5630000000	2
2.5930000000	1
2.6230000000	2
2.6530000000	2
2.6830000000	1
2.7130000000	1
2.7430000000	1
2.7730000000	1
2.8030000000	2
2.8330000000	2
2.8630000000	1
2.8930000000	1
2.9230000000	1
2.9530000000	2
2.9830000000	3
3.0130000000	1
3.0430000000	1
3.0730000000	1
3.1030000000	2
3.1330000000	2
3.1630000000	2
3.1930000000	3
3.2230000000	1
3.2530000000	1
3.2830000000	3
3.3130000000	2
3.3430000000	3
3.3730000000	1
3.4030000000	2
3.4330000000	1
3.4630000000	4
3.4930000000	3
3.5230000000	3
3.5530000000	1
3.5830000000	1
3.6130000000	1
3.6430000000	1
3.6730000000	2
3.7030000000	2
3.7330000000	1
3.7630000000	1
3.7930000000	3
3.8230000000	1
3.8530000000	2
3.8830000000	1
3.9130000000	2
3.9430000000	4
3.9730000000	2
4.0030000000	2
4.0330000000	2
4.0630000000	3
4.0930000000	6
4.1230000000	3
4.1530000000	3
4.1830000000	3
4.2130000000	3
4.2430000000	1
4.2730000000	3
4.3030000000	2
4.3330000000	5
4.3630000000	7
4.3930000000	5
4.4230000000	14
4.4530000000	9
4.4830000000	12
4.5130000000	27
4.5430000000	27
4.5730000000	53
4.6030000000	59
4.6330000000	90
4.6630000000	120
4.6930000000	124
4.7230000000	130
4.7530000000	119
4.7830000000	137
4.8130000000	136
4.8430000000	122
4.8730000000	139
4.9030000000	143
4.9330000000	145
4.9630000000	142
4.9930000000	140
5.0230000000	148
5.0530000000	136
5.0830000000	148
5.1130000000	121
5.1430000000	125
5.1730000000	135
5.2030000000	156
5.2330000000	129
5.2630000000	141
5.2930000000	144
5.3230000000	129
5.3530000000	129
5.3830000000	113
5.4130000000	149
5.4430000000	143
5.4730000000	156
5.5030000000	137
5.5330000000	156
5.5630000000	125
5.5930000000	136
5.6230000000	164
5.6530000000	148
5.6830000000	130
5.7130000000	143
5.7430000000	145
5.7730000000	151
5.8030000000	141
5.8330000000	148
5.8630000000	150
5.8930000000	137
5.9230000000	181
5.9530000000	132
5.9830000000	159
6.0130000000	157
6.0430000000	141
6.0730000000	156
6.1030000000	133
6.1330000000	146
6.1630000000	134
6.1930000000	126
6.2230000000	145
6.2530000000	157
6.2830000000	174
6.3130000000	150
6.3430000000	145
6.3730000000	138
6.4030000000	160
6.4330000000	157
6.4630000000	153
6.4930000000	167
6.5230000000	164
6.5530000000	153
6.5830000000	139
6.6130000000	151
6.6430000000	146
6.6730000000	135
6.7030000000	155
6.7330000000	142
6.7630000000	139
6.7930000000	150
6.8230000000	153
6.8530000000	153
6.8830000000	144
6.9130000000	138
6.9430000000	136
6.9730000000	162
7.0030000000	163
7.0330000000	135
7.0630000000	143
7.0930000000	140
7.1230000000	155
7.1530000000	137
7.1830000000	129
7.2130000000	156
7.2430000000	152
7.2730000000	156
7.3030000000	143
7.3330000000	144
7.3630000000	155
7.3930000000	155
7.4230000000	152
7.4530000000	148
7.4830000000	149
7.5130000000	140
7.5430000000	134
7.5730000000	135
7.6030000000	145
7.6330000000	147
7.6630000000	141
7.6930000000	136
7.7230000000	128
7.7530000000	132
7.7830000000	146
7.8130000000	151
7.8430000000	146
7.8730000000	157
7.9030000000	149
7.9330000000	133
7.9630000000	154
7.9930000000	157
8.0230000000	138
8.0530000000	144
8.0830000000	140
8.1130000000	137
8.1430000000	136
8.1730000000	155
8.2030000000	140
8.2330000000	132
8.2630000000	161
8.2930000000	152
8.3230000000	132
8.3530000000	155
8.3830000000	147
8.4130000000	138
8.4430000000	142
8.4730000000	156
8.5030000000	160
8.5330000000	174
8.5630000000	157
8.5930000000	145
8.6230000000	125
8.6530000000	138
8.6830000000	137
8.7130000000	172
8.7430000000	129
8.7730000000	121
8.8030000000	150
8.8330000000	147
8.8630000000	143
8.8930000000	139
8.9230000000	158
8.9530000000	160
8.9830000000	138
9.0130000000	125
9.0430000000	132
9.0730000000	155
9.1030000000	155
9.1330000000	166
9.1630000000	142
9.1930000000	153
9.2230000000	156
9.2530000000	144
9.2830000000	147
9.3130000000	162
9.3430000000	125
9.3730000000	141
9.4030000000	156
9.4330000000	136
9.4630000000	139
9.4930000000	152
9.5230000000	150
9.5530000000	153
9.5830000000	157
9.6130000000	149
9.6430000000	148
9.6730000000	134
9.7030000000	127
9.7330000000	130
9.7630000000	136
9.7930000000	141
9.8230000000	139
9.8530000000	139
9.8830000000	164
9.9130000000	144
9.9430000000	138
9.9730000000	165
10.0030000000	149
10.0330000000	133
10.0630000000	151
10.0930000000	117
10.1230000000	147
10.1530000000	160
10.1830000000	157
10.2130000000	155
10.2430000000	168
10.2730000000	141
10.3030000000	177
10.3330000000	158
10.3630000000	162
10.3930000000	136
10.4230000000	129
10.4530000000	139
10.4830000000	153
10.5130000000	142
10.5430000000	134
10.5730000000	149
10.6030000000	154
10.6330000000	139
10.6630000000	125
10.6930000000	149
10.7230000000	142
10.7530000000	118
10.7830000000	125
10.8130000000	158
10.8430000000	164
10.8730000000	136
10.9030000000	139
10.9330000000	126
10.9630000000	132
10.9930000000	142
11.0230000000	153
11.0530000000	133
11.0830000000	154
11.1130000000	139
11.1430000000	131
11.1730000000	144
11.2030000000	157
11.2330000000	142
11.2630000000	130
11.2930000000	157
11.3230000000	134
11.3530000000	143
11.3830000000	161
11.4130000000	142
11.4430000000	143
11.4730000000	137
11.5030000000	150
11.5330000000	136
11.5630000000	135
11.5930000000	153
11.6230000000	169
11.6530000000	137
11.6830000000	128
11.7130000000	133
11.7430000000	146
11.7730000000	162
11.8030000000	124
11.8330000000	128
11.8630000000	124
11.8930000000	146
11.9230000000	149
11.9530000000	126
11.9830000000	150
12.0130000000	138
12.0430000000	148
12.0730000000	132
12.1030000000	124
12.1330000000	126
12.1630000000	144
12.1930000000	148
12.2230000000	163
12.2530000000	139
12.2830000000	135
12.3130000000	126
12.3430000000	134
12.3730000000	146
12.4030000000	140
12.4330000000	137
12.4630000000	133
12.4930000000	141
12.5230000000	141
12.5530000000	153
12.5830000000	142
12.6130000000	134
12.6430000000	140
12.6730000000	140
12.7030000000	146
12.7330000000	175
12.7630000000	165
12.7930000000	153
12.8230000000	149
12.8530000000	138
12.8830000000	141
12.9130000000	152
12.9430000000	156
12.9730000000	152
13.0030000000	156
13.0330000000	151
13.0630000000	138
13.0930000000	151
13.1230000000	155
13.1530000000	135
13.1830000000	148
13.2130000000	132
13.2430000000	166
13.2730000000	170
13.3030000000	112
13.3330000000	137
13.3630000000	150
13.3930000000	133
13.4230000000	137
13.4530000000	130
13.4830000000	141
13.5130000000	128
13.5430000000	166
13.5730000000	140
13.6030000000	158
13.6330000000	139
13.6630000000	125
13.6930000000	168
13.7230000000	142
13.7530000000	157
13.7830000000	130
13.8130000000	149
13.8430000000	158
13.8730000000	117
13.9030000000	145
13.9330000000	137
13.9630000000	125
13.9930000000	147
14.0230000000	138
14.0530000000	155
14.0830000000	148
14.1130000000	131
14.1430000000	136
14.1730000000	127
14.2030000000	126
14.2330000000	145
14.2630000000	132
14.2930000000	138
14.3230000000	157
14.3530000000	150
14.3830000000	156
14.4130000000	129
14.4430000000	141
14.4730000000	135
14.5030000000	124
14.5330000000	131
14.5630000000	142
14.5930000000	131
14.6230000000	135
14.6530000000	163
14.6830000000	135
14.7130000000	149
14.7430000000	159
14.7730000000	143
14.8030000000	166
14.8330000000	147
14.8630000000	145
14.8930000000	158
14.9230000000	164
14.9530000000	142
14.9830000000	152
15.0130000000	158
15.0430000000	149
15.0730000000	163
15.1030000000	162
15.1330000000	167
15.1630000000	138
15.1930000000	159
15.2230000000	140
15.2530000000	139
15.2830000000	161
15.3130000000	150
15.3430000000	159
15.3730000000	151
15.4030000000	162
15.4330000000	148
15.4630000000	160
15.4930000000	153
15.5230000000	145
15.5530000000	154
15.5830000000	145
15.6130000000	171
15.6430000000	137
15.6730000000	148
15.7030000000	153
15.7330000000	139
15.7630000000	155
15.7930000000	129
15.8230000000	162
15.8530000000	179
15.8830000000	130
15.9130000000	141
15.9430000000	134
15.9730000000	148
16.0030000000	133
16.0330000000	134
16.0630000000	148
16.0930000000	126
16.1230000000	151
16.1530000000	143
16.1830000000	165
16.2130000000	145
16.2430000000	145
16.2730000000	150
16.3030000000	146
16.3330000000	142
16.3630000000	169
16.3930000000	122
16.4230000000	128
16.4530000000	131
16.4830000000	157
16.5130000000	122
16.5430000000	158
16.5730000000	142
16.6030000000	137
16.6330000000	140
16.6630000000	146
16.6930000000	151
16.7230000000	155
16.7530000000	135
16.7830000000	156
16.8130000000	152
16.8430000000	143
16.8730000000	141
16.9030000000	138
16.9330000000	142
16.9630000000	133
16.9930000000	145
17.0230000000	144
17.0530000000	165
17.0830000000	161
17.1130000000	141
17.1430000000	137
17.1730000000	158
17.2030000000	173
17.2330000000	151
17.2630000000	148
17.2930000000	142
17.3230000000	133
17.3530000000	132
17.3830000000	140
17.4130000000	140
17.4430000000	164
17.4730000000	149
17.5030000000	169
17.5330000000	162
17.5630000000	135
17.5930000000	149
17.6230000000	146
17.6530000000	143
17.6830000000	141
17.7130000000	141
17.7430000000	156
17.7730000000	150
17.8030000000	145
17.8330000000	153
17.8630000000	145
17.8930000000	149
17.9230000000	169
17.9530000000	151
17.9830000000	132
18.0130000000	138
18.0430000000	142
18.0730000000	141
18.1030000000	127
18.1330000000	148
18.1630000000	164
18.1930000000	134
18.2230000000	123
18.2530000000	131
18.2830000000	148
18.3130000000	149
18.3430000000	124
18.3730000000	144
18.4030000000	139
18.4330000000	153
18.4630000000	149
18.4930000000	160
18.5230000000	153
18.5530000000	131
18.5830000000	151
18.6130000000	160
18.6430000000	149
18.6730000000	148
18.7030000000	143
18.7330000000	140
18.7630000000	140
18.7930000000	152
18.8230000000	142
18.8530000000	133
18.8830000000	168
18.9130000000	163
18.9430000000	148
18.9730000000	154
19.0030000000	161
19.0330000000	147
19.0630000000	159
19.0930000000	139
19.1230000000	149
19.1530000000	144
19.1830000000	167
19.2130000000	134
19.2430000000	145
19.2730000000	151
19.3030000000	150
19.3330000000	154
19.3630000000	146
19.3930000000	152
19.4230000000	174
19.4530000000	137
19.4830000000	159
19.5130000000	153
19.5430000000	147
19.5730000000	151
19.6030000000	165
19.6330000000	130
19.6630000000	150
19.6930000000	167
19.7230000000	148
19.7530000000	161
19.7830000000	149
19.8130000000	121
19.8430000000	128
19.8730000000	163
19.9030000000	146
19.9330000000	142
19.9630000000	126
19.9930000000	166
20.0230000000	155
20.0530000000	146
20.0830000000	150
20.1130000000	139
20.1430000000	159
20.1730000000	166
20.2030000000	174
20.2330000000	150
20.2630000000	155
20.2930000000	157
20.3230000000	154
20.3530000000	145
20.3830000000	161
20.4130000000	159
20.4430000000	168
20.4730000000	177
20.5030000000	160
20.5330000000	191
20.5630000000	201
20.5930000000	205
20.6230000000	222
20.6530000000	249
20.6830000000	346
20.7130000000	522
20.7430000000	879
20.7730000000	1421
20.8030000000	2011
20.8330000000	3159
20.8630000000	5445
20.8930000000	7966
20.9230000000	8459
20.9530000000	6250
20.9830000000	3821
21.0130000000	2207
21.0430000000	1388
21.0730000000	804
21.1030000000	490
21.1330000000	333
21.1630000000	240
21.1930000000	208
21.2230000000	202
21.2530000000	181
21.2830000000	156
21.3130000000	169
21.3430000000	176
21.3730000000	169
21.4030000000	151
21.4330000000	176
21.4630000000	154
21.4930000000	159
21.5230000000	169
21.5530000000	156
21.5830000000	176
21.6130000000	169
21.6430000000	172
21.6730000000	166
21.7030000000	157
21.7330000000	166
21.7630000000	147
21.7930000000	156
21.8230000000	166
21.8530000000	156
21.8830000000	147
21.9130000000	149
21.9430000000	165
21.9730000000	173
22.0030000000	164
22.0330000000	167
22.0630000000	169
22.0930000000	158
22.1230000000	155
22.1530000000	177
22.1830000000	178
22.2130000000	166
22.2430000000	178
22.2730000000	181
22.3030000000	177
22.3330000000	160
22.3630000000	164
22.3930000000	162
22.4230000000	161
22.4530000000	160
22.4830000000	157
22.5130000000	173
22.5430000000	177
22.5730000000	160
22.6030000000	168
22.6330000000	162
22.6630000000	140
22.6930000000	155
22.7230000000	164
22.7530000000	168
22.7830000000	168
22.8130000000	149
22.8430000000	151
22.8730000000	170
22.9030000000	182
22.9330000000	158
22.9630000000	201
22.9930000000	157
23.0230000000	161
23.0530000000	179
23.0830000000	174
23.1130000000	178
23.1430000000	161
23.1730000000	177
23.2030000000	160
23.2330000000	178
23.2630000000	203
23.2930000000	146
23.3230000000	162
23.3530000000	174
23.3830000000	189
23.4130000000	174
23.4430000000	166
23.4730000000	181
23.5030000000	164
23.5330000000	182
23.5630000000	141
23.5930000000	156
23.6230000000	165
23.6530000000	190
23.6830000000	149
23.7130000000	163
23.7430000000	158
23.7730000000	177
23.8030000000	173
23.8330000000	170
23.8630000000	165
23.8930000000	184
23.9230000000	199
23.9530000000	173
23.9830000000	175
24.0130000000	164
24.0430000000	183
24.0730000000	172
24.1030000000	181
24.1330000000	167
24.1630000000	181
24.1930000000	134
24.2230000000	166
24.2530000000	152
24.2830000000	165
24.3130000000	172
24.3430000000	189
24.3730000000	169
24.4030000000	185
24.4330000000	189
24.4630000000	155
24.4930000000	181
24.5230000000	176
24.5530000000	195
24.5830000000	177
24.6130000000	177
24.6430000000	173
24.6730000000	178
24.7030000000	189
24.7330000000	161
24.7630000000	152
24.7930000000	168
24.8230000000	166
24.8530000000	177
24.8830000000	166
24.9130000000	160
24.9430000000	174
24.9730000000	169
25.0030000000	162
25.0330000000	182
25.0630000000	149
25.0930000000	174
25.1230000000	162
25.1530000000	159
25.1830000000	174
25.2130000000	175
25.2430000000	157
25.2730000000	164
25.3030000000	177
25.3330000000	179
25.3630000000	145
25.3930000000	182
25.4230000000	193
25.4530000000	174
25.4830000000	187
25.5130000000	196
25.5430000000	230
25.5730000000	242
25.6030000000	276
25.6330000000	216
25.6630000000	212
25.6930000000	186
25.7230000000	175
25.7530000000	165
25.7830000000	148
25.8130000000	173
25.8430000000	158
25.8730000000	177
25.9030000000	143
25.9330000000	151
25.9630000000	173
25.9930000000	167
26.0230000000	155
26.0530000000	159
26.0830000000	173
26.1130000000	159
26.1430000000	168
26.1730000000	145
26.2030000000	150
26.2330000000	164
26.2630000000	155
26.2930000000	145
26.3230000000	158
26.3530000000	158
26.3830000000	175
26.4130000000	178
26.4430000000	163
26.4730000000	157
26.5030000000	155
26.5330000000	155
26.5630000000	170
26.5930000000	152
26.6230000000	139
26.6530000000	146
26.6830000000	180
26.7130000000	175
26.7430000000	161
26.7730000000	174
26.8030000000	176
26.8330000000	180
26.8630000000	160
26.8930000000	162
26.9230000000	168
26.9530000000	168
26.9830000000	161
27.0130000000	159
27.0430000000	162
27.0730000000	157
27.1030000000	143
27.1330000000	141
27.1630000000	167
27.1930000000	178
27.2230000000	159
27.2530000000	131
27.2830000000	167
27.3130000000	168
27.3430000000	153
27.3730000000	140
27.4030000000	164
27.4330000000	167
27.4630000000	154
27.4930000000	128
27.5230000000	161
27.5530000000	167
27.5830000000	145
27.6130000000	142
27.6430000000	162
27.6730000000	154
27.7030000000	159
27.7330000000	161
27.7630000000	167
27.7930000000	159
27.8230000000	145
27.8530000000	151
27.8830000000	155
27.9130000000	134
27.9430000000	138
27.9730000000	169
28.0030000000	161
28.0330000000	149
28.0630000000	163
28.0930000000	163
28.1230000000	147
28.1530000000	144
28.1830000000	148
28.2130000000	152
28.2430000000	151
28.2730000000	156
28.3030000000	171
28.3330000000	166
28.3630000000	166
28.3930000000	149
28.4230000000	139
28.4530000000	163
28.4830000000	160
28.5130000000	145
28.5430000000	143
28.5730000000	162
28.6030000000	161
28.6330000000	154
28.6630000000	164
28.6930000000	149
28.7230000000	151
28.7530000000	158
28.7830000000	151
28.8130000000	143
28.8430000000	140
28.8730000000	144
28.9030000000	144
28.9330000000	133
28.9630000000	163
28.9930000000	145
29.0230000000	155
29.0530000000	145
29.0830000000	141
29.1130000000	138
29.1430000000	173
29.1730000000	137
29.2030000000	140
29.2330000000	129
29.2630000000	155
29.2930000000	144
29.3230000000	135
29.3530000000	151
29.3830000000	118
29.4130000000	146
29.4430000000	142
29.4730000000	143
29.5030000000	124
29.5330000000	142
29.5630000000	144
29.5930000000	123
29.6230000000	130
29.6530000000	140
29.6830000000	125
29.7130000000	149
29.7430000000	140
29.7730000000	147
29.8030000000	133
29.8330000000	128
29.8630000000	144
29.8930000000	124
29.9230000000	133
29.9530000000	127
29.9830000000	152
30.0130000000	151
30.0430000000	152
30.0730000000	160
30.1030000000	161
30.1330000000	136
30.1630000000	115
30.1930000000	157
30.2230000000	151
30.2530000000	114
30.2830000000	119
30.3130000000	143
30.3430000000	136
30.3730000000	134
30.4030000000	126
30.4330000000	130
30.4630000000	134
30.4930000000	137
30.5230000000	123
30.5530000000	126
30.5830000000	143
30.6130000000	132
30.6430000000	123
30.6730000000	114
30.7030000000	135
30.7330000000	132
30.7630000000	136
30.7930000000	157
30.8230000000	138
30.8530000000	133
30.8830000000	131
30.9130000000	143
30.9430000000	131
30.9730000000	138
31.0030000000	151
31.0330000000	134
31.0630000000	131
31.0930000000	142
31.1230000000	133
31.1530000000	128
31.1830000000	142
31.2130000000	134
31.2430000000	145
31.2730000000	120
31.3030000000	129
31.3330000000	128
31.3630000000	126
31.3930000000	136
31.4230000000	130
31.4530000000	137
31.4830000000	127
31.5130000000	111
31.5430000000	113
31.5730000000	114
31.6030000000	131
31.6330000000	141
31.6630000000	150
31.6930000000	138
31.7230000000	133
31.7530000000	117
31.7830000000	112
31.8130000000	159
31.8430000000	137
31.8730000000	124
31.9030000000	107
31.9330000000	123
31.9630000000	108
31.9930000000	128
32.0230000000	124
32.0530000000	115
32.0830000000	114
32.1130000000	128
32.1430000000	122
32.1730000000	122
32.2030000000	133
32.2330000000	128
32.2630000000	134
32.2930000000	122
32.3230000000	134
32.3530000000	128
32.3830000000	98
32.4130000000	130
32.4430000000	132
32.4730000000	130
32.5030000000	132
32.5330000000	132
32.5630000000	135
32.5930000000	116
32.6230000000	120
32.6530000000	124
32.6830000000	138
32.7130000000	153
32.7430000000	146
32.7730000000	128
32.8030000000	155
32.8330000000	142
32.8630000000	161
32.8930000000	144
32.9230000000	172
32.9530000000	153
32.9830000000	204
33.0130000000	243
33.0430000000	358
33.0730000000	602
33.1030000000	1091
33.1330000000	1641
33.1630000000	2443
33.1930000000	3901
33.2230000000	6004
33.2530000000	7643
33.2830000000	7643
33.3130000000	5931
33.3430000000	3738
33.3730000000	2185
33.4030000000	1359
33.4330000000	834
33.4630000000	480
33.4930000000	312
33.5230000000	235
33.5530000000	206
33.5830000000	199
33.6130000000	162
33.6430000000	175
33.6730000000	153
33.7030000000	164
33.7330000000	119
33.7630000000	127
33.7930000000	130
33.8230000000	117
33.8530000000	118
33.8830000000	138
33.9130000000	141
33.9430000000	137
33.9730000000	122
34.0030000000	119
34.0330000000	126
34.0630000000	127
34.0930000000	123
34.1230000000	135
34.1530000000	125
34.1830000000	122
34.2130000000	134
34.2430000000	109
34.2730000000	116
34.3030000000	116
34.3330000000	112
34.3630000000	115
34.3930000000	108
34.4230000000	118
34.4530000000	103
34.4830000000	106
34.5130000000	109
34.5430000000	112
34.5730000000	109
34.6030000000	128
34.6330000000	143
34.6630000000	116
34.6930000000	113
34.7230000000	104
34.7530000000	115
34.7830000000	112
34.8130000000	101
34.8430000000	110
34.8730000000	109
34.9030000000	93
34.9330000000	114
34.9630000000	113
34.9930000000	105
35.0230000000	112
35.0530000000	111
35.0830000000	98
35.1130000000	98
35.1430000000	102
35.1730000000	93
35.2030000000	102
35.2330000000	102
35.2630000000	100
35.2930000000	98
35.3230000000	112
35.3530000000	104
35.3830000000	95
35.4130000000	116
35.4430000000	108
35.4730000000	115
35.5030000000	96
35.5330000000	104
35.5630000000	109
35.5930000000	102
35.6230000000	99
35.6530000000	109
35.6830000000	115
35.7130000000	95
35.7430000000	114
35.7730000000	100
35.8030000000	95
35.8330000000	102
35.8630000000	119
35.8930000000	105
35.9230000000	97
35.9530000000	110
35.9830000000	94
36.0130000000	89
36.0430000000	116
36.0730000000	114
36.1030000000	110
36.1330000000	95
36.1630000000	99
36.1930000000	110
36.2230000000	117
36.2530000000	109
36.2830000000	125
36.3130000000	119
36.3430000000	139
36.3730000000	165
36.4030000000	198
36.4330000000	268
36.4630000000	281
36.4930000000	272
36.5230000000	208
36.5530000000	177
36.5830000000	147
36.6130000000	148
36.6430000000	128
36.6730000000	119
36.7030000000	122
36.7330000000	106
36.7630000000	103
36.7930000000	95
36.8230000000	96
36.8530000000	107
36.8830000000	111
36.9130000000	125
36.9430000000	105
36.9730000000	99
37.0030000000	111
37.0330000000	85
37.0630000000	94
37.0930000000	104
37.1230000000	99
37.1530000000	114
37.1830000000	90
37.2130000000	87
37.2430000000	88
37.2730000000	103
37.3030000000	90
37.3330000000	77
37.3630000000	80
37.3930000000	95
37.4230000000	95
37.4530000000	100
37.4830000000	92
37.5130000000	90
37.5430000000	88
37.5730000000	108
37.6030000000	89
37.6330000000	99
37.6630000000	84
37.6930000000	91
37.7230000000	93
37.7530000000	90
37.7830000000	92
37.8130000000	84
37.8430000000	85
37.8730000000	100
37.9030000000	89
37.9330000000	90
37.9630000000	102
37.9930000000	93
38.0230000000	82
38.0530000000	102
38.0830000000	99
38.1130000000	92
38.1430000000	86
38.1730000000	89
38.2030000000	100
38.2330000000	92
38.2630000000	103
38.2930000000	110
38.3230000000	101
38.3530000000	92
38.3830000000	103
38.4130000000	103
38.4430000000	92
38.4730000000	90
38.5030000000	91
38.5330000000	90
38.5630000000	96
38.5930000000	110
38.6230000000	96
38.6530000000	90
38.6830000000	97
38.7130000000	102
38.7430000000	107
38.7730000000	94
38.8030000000	87
38.8330000000	101
38.8630000000	102
38.8930000000	95
38.9230000000	96
38.9530000000	85
38.9830000000	90
39.0130000000	102
39.0430000000	88
39.0730000000	99
39.1030000000	80
39.1330000000	102
39.1630000000	93
39.1930000000	102
39.2230000000	87
39.2530000000	90
39.2830000000	116
39.3130000000	84
39.3430000000	92
39.3730000000	98
39.4030000000	102
39.4330000000	98
39.4630000000	94
39.4930000000	91
39.5230000000	83
39.5530000000	101
39.5830000000	89
39.6130000000	99
39.6430000000	117
39.6730000000	105
39.7030000000	100
39.7330000000	109
39.7630000000	102
39.7930000000	86
39.8230000000	91
39.8530000000	105
39.8830000000	103
39.9130000000	94
39.9430000000	83
39.9730000000	80
40.0030000000	75
40.0330000000	79
40.0630000000	91
40.0930000000	78
40.1230000000	98
40.1530000000	104
40.1830000000	91
40.2130000000	86
40.2430000000	85
40.2730000000	84
40.3030000000	84
40.3330000000	106
40.3630000000	102
40.3930000000	101
40.4230000000	99
40.4530000000	95
40.4830000000	82
40.5130000000	101
40.5430000000	96
40.5730000000	96
40.6030000000	89
40.6330000000	107
40.6630000000	102
40.6930000000	91
40.7230000000	97
40.7530000000	111
40.7830000000	104
40.8130000000	131
40.8430000000	162
40.8730000000	204
40.9030000000	242
40.9330000000	290
40.9630000000	380
40.9930000000	465
41.0230000000	474
41.0530000000	441
41.0830000000	326
41.1130000000	275
41.1430000000	185
41.1730000000	130
41.2030000000	138
41.2330000000	111
41.2630000000	109
41.2930000000	106
41.3230000000	101
41.3530000000	99
41.3830000000	97
41.4130000000	96
41.4430000000	119
41.4730000000	89
41.5030000000	101
41.5330000000	105
41.5630000000	96
41.5930000000	88
41.6230000000	77
41.6530000000	86
41.6830000000	101
41.7130000000	93
41.7430000000	111
41.7730000000	106
41.8030000000	102
41.8330000000	100
41.8630000000	95
41.8930000000	109
41.9230000000	92
41.9530000000	103
41.9830000000	95
42.0130000000	86
42.0430000000	96
42.0730000000	103
42.1030000000	98
42.1330000000	100
42.1630000000	102
42.1930000000	105
42.2230000000	119
42.2530000000	126
42.2830000000	133
42.3130000000	178
42.3430000000	244
42.3730000000	253
42.4030000000	277
42.4330000000	306
42.4630000000	321
42.4930000000	335
42.5230000000	337
42.5530000000	308
42.5830000000	246
42.6130000000	219
42.6430000000	188
42.6730000000	152
42.7030000000	126
42.7330000000	119
42.7630000000	121
42.7930000000	91
42.8230000000	95
42.8530000000	110
42.8830000000	91
42.9130000000	85
42.9430000000	99
42.9730000000	84
43.0030000000	99
43.0330000000	114
43.0630000000	79
43.0930000000	94
43.1230000000	96
43.1530000000	88
43.1830000000	79
43.2130000000	94
43.2430000000	95
43.2730000000	104
43.3030000000	98
43.3330000000	90
43.3630000000	104
43.3930000000	85
43.4230000000	101
43.4530000000	93
43.4830000000	82
43.5130000000	89
43.5430000000	71
43.5730000000	87
43.6030000000	74
43.6330000000	87
43.6630000000	100
43.6930000000	95
43.7230000000	93
43.7530000000	102
43.7830000000	96
43.8130000000	86
43.8430000000	88
43.8730000000	96
43.9030000000	87
43.9330000000	104
43.9630000000	91
43.9930000000	89
44.0230000000	93
44.0530000000	85
44.0830000000	72
44.1130000000	72
44.1430000000	90
44.1730000000	86
44.2030000000	78
44.2330000000	90
44.2630000000	89
44.2930000000	83
44.3230000000	76
44.3530000000	76
44.3830000000	78
44.4130000000	95
44.4430000000	88
44.4730000000	88
44.5030000000	87
44.5330000000	80
44.5630000000	79
44.5930000000	84
44.6230000000	89
44.6530000000	93
44.6830000000	91
44.7130000000	88
44.7430000000	82
44.7730000000	99
44.8030000000	71
44.8330000000	75
44.8630000000	97
44.8930000000	83
44.9230000000	75
44.9530000000	75
44.9830000000	84
45.0130000000	94
45.0430000000	76
45.0730000000	78
45.1030000000	77
45.1330000000	95
45.1630000000	101
45.1930000000	81
45.2230000000	81
45.2530000000	82
45.2830000000	87
45.3130000000	90
45.3430000000	91
45.3730000000	97
45.4030000000	97
45.4330000000	89
45.4630000000	84
45.4930000000	64
45.5230000000	86
45.5530000000	87
45.5830000000	78
45.6130000000	77
45.6430000000	84
45.6730000000	77
45.7030000000	73
45.7330000000	81
45.7630000000	80
45.7930000000	86
45.8230000000	82
45.8530000000	83
45.8830000000	82
45.9130000000	85
45.9430000000	78
45.9730000000	105
46.0030000000	77
46.0330000000	67
46.0630000000	71
46.0930000000	83
46.1230000000	90
46.1530000000	74
46.1830000000	80
46.2130000000	76
46.2430000000	83
46.2730000000	93
46.3030000000	80
46.3330000000	89
46.3630000000	106
46.3930000000	113
46.4230000000	128
46.4530000000	112
46.4830000000	131
46.5130000000	135
46.5430000000	114
46.5730000000	98
46.6030000000	120
46.6330000000	98
46.6630000000	96
46.6930000000	83
46.7230000000	77
46.7530000000	71
46.7830000000	77
46.8130000000	83
46.8430000000	75
46.8730000000	82
46.9030000000	70
46.9330000000	96
46.9630000000	65
46.9930000000	78
47.0230000000	70
47.0530000000	77
47.0830000000	67
47.1130000000	77
47.1430000000	64
47.1730000000	80
47.2030000000	82
47.2330000000	76
47.2630000000	80
47.2930000000	80
47.3230000000	72
47.3530000000	86
47.3830000000	84
47.4130000000	71
47.4430000000	80
47.4730000000	80
47.5030000000	79
47.5330000000	88
47.5630000000	86
47.5930000000	78
47.6230000000	75
47.6530000000	77
47.6830000000	87
47.7130000000	51
47.7430000000	70
47.7730000000	73
47.8030000000	82
47.8330000000	69
47.8630000000	79
47.8930000000	65
47.9230000000	72
47.9530000000	67
47.9830000000	86
48.0130000000	68
48.0430000000	68
48.0730000000	71
48.1030000000	61
48.1330000000	61
48.1630000000	78
48.1930000000	65
48.2230000000	71
48.2530000000	77
48.2830000000	76
48.3130000000	65
48.3430000000	70
48.3730000000	66
48.4030000000	83
48.4330000000	77
48.4630000000	61
48.4930000000	70
48.5230000000	53
48.5530000000	77
48.5830000000	78
48.6130000000	67
48.6430000000	61
48.6730000000	72
48.7030000000	75
48.7330000000	58
48.7630000000	63
48.7930000000	76
48.8230000000	73
48.8530000000	69
48.8830000000	68
48.9130000000	68
48.9430000000	69
48.9730000000	67
49.0030000000	64
49.0330000000	73
49.0630000000	81
49.0930000000	67
49.1230000000	70
49.1530000000	63
49.1830000000	71
49.2130000000	68
49.2430000000	60
49.2730000000	69
49.3030000000	69
49.3330000000	71
49.3630000000	58
49.3930000000	59
49.4230000000	42
49.4530000000	75
49.4830000000	68
49.5130000000	68
49.5430000000	72
49.5730000000	69
49.6030000000	66
49.6330000000	75
49.6630000000	63
49.6930000000	54
49.7230000000	78
49.7530000000	64
49.7830000000	71
49.8130000000	63
49.8430000000	60
49.8730000000	53
49.9030000000	66
49.9330000000	87
49.9630000000	81
49.9930000000	50
50.0230000000	57
50.0530000000	68
50.0830000000	77
50.1130000000	67
50.1430000000	78
50.1730000000	60
50.2030000000	67
50.2330000000	79
50.2630000000	68
50.2930000000	78
50.3230000000	68
50.3530000000	63
50.3830000000	86
50.4130000000	67
50.4430000000	77
50.4730000000	61
50.5030000000	64
50.5330000000	73
50.5630000000	58
50.5930000000	71
50.6230000000	78
50.6530000000	66
50.6830000000	68
50.7130000000	57
50.7430000000	50
50.7730000000	57
50.8030000000	76
50.8330000000	64
50.8630000000	77
50.8930000000	69
50.9230000000	69
50.9530000000	71
50.9830000000	57
51.0130000000	55
51.0430000000	65
51.0730000000	55
51.1030000000	62
51.1330000000	69
51.1630000000	54
51.1930000000	65
51.2230000000	73
51.2530000000	68
51.2830000000	66
51.3130000000	48
51.3430000000	60
51.3730000000	68
51.4030000000	54
51.4330000000	53
51.4630000000	64
51.4930000000	62
51.5230000000	59
51.5530000000	62
51.5830000000	66
51.6130000000	62
51.6430000000	54
51.6730000000	59
51.7030000000	64
51.7330000000	65
51.7630000000	51
51.7930000000	63
51.8230000000	60
51.8530000000	77
51.8830000000	63
51.9130000000	60
51.9430000000	53
51.9730000000	71
52.0030000000	66
52.0330000000	58
52.0630000000	61
52.0930000000	59
52.1230000000	79
52.1530000000	67
52.1830000000	53
52.2130000000	60
52.2430000000	48
52.2730000000	65
52.3030000000	60
52.3330000000	66
52.3630000000	59
52.3930000000	62
52.4230000000	54
52.4530000000	46
52.4830000000	56
52.5130000000	79
52.5430000000	71
52.5730000000	86
52.6030000000	84
52.6330000000	90
52.6630000000	85
52.6930000000	74
52.7230000000	59
52.7530000000	62
52.7830000000	57
52.8130000000	56
52.8430000000	62
52.8730000000	66
52.9030000000	68
52.9330000000	66
52.9630000000	52
52.9930000000	50
53.0230000000	63
53.0530000000	57
53.0830000000	66
53.1130000000	48
53.1430000000	48
53.1730000000	65
53.2030000000	55
53.2330000000	57
53.2630000000	64
53.2930000000	53
53.3230000000	52
53.3530000000	47
53.3830000000	51
53.4130000000	42
53.4430000000	64
53.4730000000	53
53.5030000000	52
53.5330000000	84
53.5630000000	79
53.5930000000	70
53.6230000000	67
53.6530000000	65
53.6830000000	57
53.7130000000	56
53.7430000000	53
53.7730000000	46
53.8030000000	43
53.8330000000	51
53.8630000000	57
53.8930000000	54
53.9230000000	75
53.9530000000	53
53.9830000000	51
54.0130000000	52
54.0430000000	59
54.0730000000	53
54.1030000000	43
54.1330000000	52
54.1630000000	55
54.1930000000	61
54.2230000000	50
54.2530000000	57
54.2830000000	55
54.3130000000	44
54.3430000000	66
54.3730000000	47
54.4030000000	52
54.4330000000	67
54.4630000000	56
54.4930000000	57
54.5230000000	64
54.5530000000	58
54.5830000000	53
54.6130000000	60
54.6430000000	54
54.6730000000	57
54.7030000000	67
54.7330000000	53
54.7630000000	48
54.7930000000	49
54.8230000000	60
54.8530000000	47
54.8830000000	65
54.9130000000	47
54.9430000000	50
54.9730000000	40
55.0030000000	55
55.0330000000	54
55.0630000000	59
55.0930000000	51
55.1230000000	60
55.1530000000	46
55.1830000000	64
55.2130000000	51
55.2430000000	50
55.2730000000	58
55.3030000000	64
55.3330000000	45
55.3630000000	48
55.3930000000	52
55.4230000000	47
55.4530000000	45
55.4830000000	66
55.5130000000	54
55.5430000000	57
55.5730000000	58
55.6030000000	57
55.6330000000	51
55.6630000000	58
55.6930000000	45
55.7230000000	55
55.7530000000	50
55.7830000000	51
55.8130000000	62
55.8430000000	49
55.8730000000	49
55.9030000000	57
55.9330000000	54
55.9630000000	58
55.9930000000	42
56.0230000000	42
56.0530000000	69
56.0830000000	67
56.1130000000	48
56.1430000000	59
56.1730000000	54
56.2030000000	57
56.2330000000	52
56.2630000000	51
56.2930000000	53
56.3230000000	53
56.3530000000	48
56.3830000000	67
56.4130000000	67
56.4430000000	53
56.4730000000	47
56.5030000000	64
56.5330000000	53
56.5630000000	55
56.5930000000	54
56.6230000000	46
56.6530000000	63
56.6830000000	65
56.7130000000	43
56.7430000000	50
56.7730000000	53
56.8030000000	57
56.8330000000	57
56.8630000000	50
56.8930000000	54
56.9230000000	66
56.9530000000	56
56.9830000000	48
57.0130000000	55
57.0430000000	62
57.0730000000	47
57.1030000000	40
57.1330000000	56
57.1630000000	77
57.1930000000	58
57.2230000000	73
57.2530000000	71
57.2830000000	85
57.3130000000	70
57.3430000000	55
57.3730000000	59
57.4030000000	71
57.4330000000	58
57.4630000000	52
57.4930000000	55
57.5230000000	57
57.5530000000	58
57.5830000000	46
57.6130000000	47
57.6430000000	55
57.6730000000	51
57.7030000000	49
57.7330000000	55
57.7630000000	62
57.7930000000	55
57.8230000000	70
57.8530000000	57
57.8830000000	45
57.9130000000	57
57.9430000000	53
57.9730000000	48
58.0030000000	50
58.0330000000	37
58.0630000000	51
58.0930000000	41
58.1230000000	49
58.1530000000	44
58.1830000000	32
58.2130000000	49
58.2430000000	49
58.2730000000	60
58.3030000000	55
58.3330000000	46
58.3630000000	55
58.3930000000	55
58.4230000000	42
58.4530000000	52
58.4830000000	53
58.5130000000	48
58.5430000000	45
58.5730000000	55
58.6030000000	64
58.6330000000	61
58.6630000000	50
58.6930000000	58
58.7230000000	58
58.7530000000	56
58.7830000000	53
58.8130000000	48
58.8430000000	43
58.8730000000	46
58.9030000000	51
58.9330000000	53
58.9630000000	43
58.9930000000	51
59.0230000000	45
59.0530000000	56
59.0830000000	56
59.1130000000	44
59.1430000000	58
59.1730000000	55
59.2030000000	54
59.2330000000	55
59.2630000000	45
59.2930000000	52
59.3230000000	56
59.3530000000	55
59.3830000000	48
59.4130000000	53
59.4430000000	51
59.4730000000	64
59.5030000000	55
59.5330000000	48
59.5630000000	68
59.5930000000	56
59.6230000000	52
59.6530000000	64
59.6830000000	55
59.7130000000	55
59.7430000000	55
59.7730000000	50
59.8030000000	53
59.8330000000	47
59.8630000000	52
59.8930000000	54
59.9230000000	60
59.9530000000	47
59.9830000000	50
60.0130000000	58
60.0430000000	49
60.0730000000	57
60.1030000000	51
60.1330000000	43
60.1630000000	56
60.1930000000	44
60.2230000000	45
60.2530000000	43
60.2830000000	55
60.3130000000	58
60.3430000000	46
60.3730000000	63
60.4030000000	58
60.4330000000	47
60.4630000000	57
60.4930000000	60
60.5230000000	65
60.5530000000	66
60.5830000000	60
60.6130000000	62
60.6430000000	60
60.6730000000	55
60.7030000000	56
60.7330000000	53
60.7630000000	41
60.7930000000	55
60.8230000000	49
60.8530000000	46
60.8830000000	39
60.9130000000	49
60.9430000000	52
60.9730000000	45
61.0030000000	51
61.0330000000	46
61.0630000000	56
61.0930000000	53
61.1230000000	48
61.1530000000	46
61.1830000000	57
61.2130000000	66
61.2430000000	61
61.2730000000	44
61.3030000000	50
61.3330000000	43
61.3630000000	64
61.3930000000	57
61.4230000000	55
61.4530000000	45
61.4830000000	53
61.5130000000	43
61.5430000000	53
61.5730000000	54
61.6030000000	34
61.6330000000	56
61.6630000000	47
61.6930000000	58
61.7230000000	48
61.7530000000	49
61.7830000000	45
61.8130000000	50
61.8430000000	53
61.8730000000	43
61.9030000000	43
61.9330000000	59
61.9630000000	44
61.9930000000	44
62.0230000000	45
62.0530000000	46
62.0830000000	42
62.1130000000	52
62.1430000000	37
62.1730000000	65
62.2030000000	36
62.2330000000	46
62.2630000000	62
62.2930000000	54
62.3230000000	51
62.3530000000	46
62.3830000000	46
62.4130000000	46
62.4430000000	56
62.4730000000	51
62.5030000000	44
62.5330000000	44
62.5630000000	53
62.5930000000	55
62.6230000000	53
62.6530000000	39
62.6830000000	48
62.7130000000	51
62.7430000000	44
62.7730000000	43
62.8030000000	53
62.8330000000	44
62.8630000000	40
62.8930000000	54
62.9230000000	55
62.9530000000	51
62.9830000000	50
63.0130000000	45
63.0430000000	48
63.0730000000	40
63.1030000000	45
63.1330000000	57
63.1630000000	47
63.1930000000	42
63.2230000000	51
63.2530000000	47
63.2830000000	45
63.3130000000	49
63.3430000000	52
63.3730000000	51
63.4030000000	42
63.4330000000	48
63.4630000000	62
63.4930000000	64
63.5230000000	70
63.5530000000	93
63.5830000000	82
63.6130000000	97
63.6430000000	115
63.6730000000	107
63.7030000000	98
63.7330000000	85
63.7630000000	78
63.7930000000	77
63.8230000000	65
63.8530000000	49
63.8830000000	47
63.9130000000	54
63.9430000000	45
63.9730000000	52
64.0030000000	46
64.0330000000	55
64.0630000000	46
64.0930000000	56
64.1230000000	43
64.1530000000	46
64.1830000000	53
64.2130000000	43
64.2430000000	52
64.2730000000	51
64.3030000000	57
64.3330000000	47
64.3630000000	39
64.3930000000	52
64.4230000000	52
64.4530000000	37
64.4830000000	49
64.5130000000	50
64.5430000000	47
64.5730000000	41
64.6030000000	45
64.6330000000	61
64.6630000000	40
64.6930000000	48
64.7230000000	33
64.7530000000	41
64.7830000000	37
64.8130000000	47
64.8430000000	45
64.8730000000	47
64.9030000000	47
64.9330000000	35
64.9630000000	40
64.9930000000	42
65.0230000000	48
65.0530000000	52
65.0830000000	48
65.1130000000	45
65.1430000000	49
65.1730000000	57
65.2030000000	62
65.2330000000	41
65.2630000000	34
65.2930000000	31
65.3230000000	33
65.3530000000	44
65.3830000000	43
65.4130000000	34
65.4430000000	41
65.4730000000	42
65.5030000000	47
65.5330000000	47
65.5630000000	52
65.5930000000	42
65.6230000000	40
65.6530000000	46
65.6830000000	55
65.7130000000	49
65.7430000000	46
65.7730000000	42
65.8030000000	37
65.8330000000	58
65.8630000000	53
65.8930000000	48
65.9230000000	44
65.9530000000	56
65.9830000000	42
66.0130000000	48
66.0430000000	49
66.0730000000	46
66.1030000000	42
66.1330000000	41
66.1630000000	55
66.1930000000	51
66.2230000000	37
66.2530000000	33
66.2830000000	35
66.3130000000	50
66.3430000000	32
66.3730000000	43
66.4030000000	44
66.4330000000	54
66.4630000000	48
66.4930000000	41
66.5230000000	40
66.5530000000	50
66.5830000000	49
66.6130000000	47
66.6430000000	57
66.6730000000	44
66.7030000000	54
66.7330000000	47
66.7630000000	44
66.7930000000	47
66.8230000000	41
66.8530000000	52
66.8830000000	38
66.9130000000	61
66.9430000000	54
66.9730000000	45
67.0030000000	47
67.0330000000	35
67.0630000000	39
67.0930000000	45
67.1230000000	46
67.1530000000	39
67.1830000000	43
67.2130000000	52
67.2430000000	46
67.2730000000	39
67.3030000000	38
67.3330000000	46
67.3630000000	48
67.3930000000	44
67.4230000000	49
67.4530000000	43
67.4830000000	61
67.5130000000	49
67.5430000000	58
67.5730000000	57
67.6030000000	34
67.6330000000	49
67.6630000000	41
67.6930000000	48
67.7230000000	40
67.7530000000	48
67.7830000000	39
67.8130000000	47
67.8430000000	49
67.8730000000	37
67.9030000000	53
67.9330000000	43
67.9630000000	47
67.9930000000	47
68.0230000000	44
68.0530000000	53
68.0830000000	45
68.1130000000	48
68.1430000000	35
68.1730000000	36
68.2030000000	49
68.2330000000	39
68.2630000000	46
68.2930000000	45
68.3230000000	40
68.3530000000	60
68.3830000000	44
68.4130000000	51
68.4430000000	40
68.4730000000	45
68.5030000000	41
68.5330000000	52
68.5630000000	42
68.5930000000	54
68.6230000000	51
68.6530000000	42
68.6830000000	36
68.7130000000	37
68.7430000000	49
68.7730000000	46
68.8030000000	40
68.8330000000	49
68.8630000000	52
68.8930000000	63
68.9230000000	50
68.9530000000	46
68.9830000000	54
69.0130000000	55
69.0430000000	50
69.0730000000	45
69.1030000000	54
69.1330000000	56
69.1630000000	49
69.1930000000	39
69.2230000000	44
69.2530000000	51
69.2830000000	54
69.3130000000	52
69.3430000000	45
69.3730000000	47
69.4030000000	42
69.4330000000	39
69.4630000000	43
69.4930000000	55
69.5230000000	58
69.5530000000	47
69.5830000000	54
69.6130000000	50
69.6430000000	47
69.6730000000	61
69.7030000000	42
69.7330000000	36
69.7630000000	62
69.7930000000	53
69.8230000000	46
69.8530000000	45
69.8830000000	44
69.9130000000	56
69.9430000000	53
69.9730000000	45
70.0030000000	71
70.0330000000	51
70.0630000000	46
70.0930000000	48
70.1230000000	50
70.1530000000	51
70.1830000000	42
70.2130000000	42
70.2430000000	36
70.2730000000	43
70.3030000000	51
70.3330000000	46
70.3630000000	54
70.3930000000	41
70.4230000000	52
70.4530000000	56
70.4830000000	42
70.5130000000	51
70.5430000000	35
70.5730000000	48
70.6030000000	50
70.6330000000	40
70.6630000000	51
70.6930000000	42
70.7230000000	46
70.7530000000	41
70.7830000000	51
70.8130000000	47
70.8430000000	51
70.8730000000	45
70.9030000000	44
70.9330000000	49
70.9630000000	57
70.9930000000	59
71.0230000000	54
71.0530000000	52
71.0830000000	48
71.1130000000	55
71.1430000000	59
71.1730000000	41
71.2030000000	47
71.2330000000	43
71.2630000000	40
71.2930000000	41
71.3230000000	53
71.3530000000	48
71.3830000000	46
71.4130000000	48
71.4430000000	49
71.4730000000	45
71.5030000000	39
71.5330000000	44
71.5630000000	33
71.5930000000	57
71.6230000000	44
71.6530000000	45
71.6830000000	47
71.7130000000	40
71.7430000000	51
71.7730000000	45
71.8030000000	40
71.8330000000	41
71.8630000000	49
71.8930000000	48
71.9230000000	43
71.9530000000	52
71.9830000000	53
72.0130000000	58
72.0430000000	43
72.0730000000	59
72.1030000000	37
72.1330000000	43
72.1630000000	53
72.1930000000	40
72.2230000000	55
72.2530000000	54
72.2830000000	41
72.3130000000	44
72.3430000000	44
72.3730000000	49
72.4030000000	40
72.4330000000	49
72.4630000000	45
72.4930000000	43
72.5230000000	45
72.5530000000	53
72.5830000000	54
72.6130000000	49
72.6430000000	72
72.6730000000	55
72.7030000000	70
72.7330000000	87
72.7630000000	79
72.7930000000	61
72.8230000000	54
72.8530000000	67
72.8830000000	74
72.9130000000	68
72.9430000000	48
72.9730000000	51
73.0030000000	39
73.0330000000	57
73.0630000000	46
73.0930000000	52
73.1230000000	49
73.1530000000	47
73.1830000000	69
73.2130000000	50
73.2430000000	42
73.2730000000	39
73.3030000000	43
73.3330000000	48
73.3630000000	42
73.3930000000	37
73.4230000000	40
73.4530000000	40
73.4830000000	46
73.5130000000	46
73.5430000000	51
73.5730000000	38
73.6030000000	42
73.6330000000	53
73.6630000000	46
73.6930000000	41
73.7230000000	40
73.7530000000	36
73.7830000000	43
73.8130000000	48
73.8430000000	51
73.8730000000	44
73.9030000000	50
73.9330000000	45
73.9630000000	36
73.9930000000	44
74.0230000000	38
74.0530000000	45
74.0830000000	39
74.1130000000	46
74.1430000000	36
74.1730000000	32
74.2030000000	25
74.2330000000	37
74.2630000000	41
74.2930000000	53
74.3230000000	40
74.3530000000	48
74.3830000000	45
74.4130000000	35
74.4430000000	37
74.4730000000	45
74.5030000000	50
74.5330000000	40
74.5630000000	46
74.5930000000	48
74.6230000000	43
74.6530000000	49
74.6830000000	42
74.7130000000	40
74.7430000000	52
74.7730000000	55
74.8030000000	50
74.8330000000	44
74.8630000000	59
74.8930000000	54
74.9230000000	52
74.9530000000	53
74.9830000000	47
75.0130000000	42
75.0430000000	50
75.0730000000	50
75.1030000000	45
75.1330000000	51
75.1630000000	45
75.1930000000	58
75.2230000000	64
75.2530000000	55
75.2830000000	58
75.3130000000	57
75.3430000000	52
75.3730000000	55
75.4030000000	59
75.4330000000	61
75.4630000000	63
75.4930000000	56
75.5230000000	72
75.5530000000	79
75.5830000000	74
75.6130000000	120
75.6430000000	140
75.6730000000	202
75.7030000000	241
75.7330000000	288
75.7630000000	311
75.7930000000	306
75.8230000000	265
75.8530000000	235
75.8830000000	194
75.9130000000	199
75.9430000000	228
75.9730000000	204
76.0030000000	154
76.0330000000	127
76.0630000000	101
76.0930000000	76
76.1230000000	72
76.1530000000	72
76.1830000000	61
76.2130000000	56
76.2430000000	60
76.2730000000	58
76.3030000000	58
76.3330000000	43
76.3630000000	39
76.3930000000	52
76.4230000000	35
76.4530000000	45
76.4830000000	45
76.5130000000	51
76.5430000000	45
76.5730000000	43
76.6030000000	52
76.6330000000	42
76.6630000000	44
76.6930000000	60
76.7230000000	50
76.7530000000	51
76.7830000000	52
76.8130000000	52
76.8430000000	32
76.8730000000	42
76.9030000000	34
76.9330000000	47
76.9630000000	42
76.9930000000	45
77.0230000000	43
77.0530000000	56
77.0830000000	35
77.1130000000	58
77.1430000000	42
77.1730000000	50
77.2030000000	47
77.2330000000	36
77.2630000000	44
77.2930000000	42
77.3230000000	59
77.3530000000	39
77.3830000000	49
77.4130000000	35
77.4430000000	40
77.4730000000	45
77.5030000000	42
77.5330000000	53
77.5630000000	36
77.5930000000	43
77.6230000000	41
77.6530000000	39
77.6830000000	33
77.7130000000	43
77.7430000000	44
77.7730000000	43
77.8030000000	38
77.8330000000	37
77.8630000000	51
77.8930000000	46
77.9230000000	40
77.9530000000	41
77.9830000000	36
78.0130000000	34
78.0430000000	37
78.0730000000	39
78.1030000000	46
78.1330000000	42
78.1630000000	42
78.1930000000	40
78.2230000000	53
78.2530000000	40
78.2830000000	44
78.3130000000	37
78.3430000000	54
78.3730000000	44
78.4030000000	37
78.4330000000	43
78.4630000000	48
78.4930000000	38
78.5230000000	38
78.5530000000	33
78.5830000000	36
78.6130000000	36
78.6430000000	44
78.6730000000	41
78.7030000000	30
78.7330000000	45
78.7630000000	47
78.7930000000	56
78.8230000000	34
78.8530000000	43
78.8830000000	31
78.9130000000	38
78.9430000000	45
78.9730000000	50
79.0030000000	41
79.0330000000	38
79.0630000000	36
79.0930000000	35
79.1230000000	39
79.1530000000	34
79.1830000000	31
79.2130000000	35
79.2430000000	38
79.2730000000	39
79.3030000000	43
79.3330000000	39
79.3630000000	36
79.3930000000	39
79.4230000000	43
79.4530000000	26
79.4830000000	36
79.5130000000	50
79.5430000000	33
79.5730000000	39
79.6030000000	39
79.6330000000	54
79.6630000000	44
79.6930000000	32
79.7230000000	38
79.7530000000	54
79.7830000000	31
79.8130000000	39
79.8430000000	42
79.8730000000	52
79.9030000000	40
79.9330000000	42
79.9630000000	41
79.9930000000	31
80.0230000000	49
80.0530000000	38
80.0830000000	36
80.1130000000	43
80.1430000000	46
80.1730000000	44
80.2030000000	41
80.2330000000	38
80.2630000000	43
80.2930000000	41
80.3230000000	45
80.3530000000	33
80.3830000000	23
80.4130000000	40
80.4430000000	35
80.4730000000	33
80.5030000000	38
80.5330000000	41
80.5630000000	34
80.5930000000	37
80.6230000000	44
80.6530000000	28
80.6830000000	42
80.7130000000	40
80.7430000000	31
80.7730000000	35
80.8030000000	32
80.8330000000	42
80.8630000000	35
80.8930000000	36
80.9230000000	52
80.9530000000	43
80.9830000000	45
81.0130000000	31
81.0430000000	49
81.0730000000	35
81.1030000000	41
81.1330000000	39
81.1630000000	43
81.1930000000	32
81.2230000000	47
81.2530000000	45
81.2830000000	54
81.3130000000	41
81.3430000000	43
81.3730000000	44
81.4030000000	42
81.4330000000	61
81.4630000000	45
81.4930000000	44
81.5230000000	40
81.5530000000	41
81.5830000000	46
81.6130000000	38
81.6430000000	39
81.6730000000	41
81.7030000000	42
81.7330000000	33
81.7630000000	30
81.7930000000	47
81.8230000000	42
81.8530000000	42
81.8830000000	43
81.9130000000	37
81.9430000000	37
81.9730000000	46
82.0030000000	34
82.0330000000	35
82.0630000000	43
82.0930000000	42
82.1230000000	52
82.1530000000	42
82.1830000000	33
82.2130000000	35
82.2430000000	46
82.2730000000	37
82.3030000000	41
82.3330000000	37
82.3630000000	34
82.3930000000	32
82.4230000000	40
82.4530000000	51
82.4830000000	37
82.5130000000	41
82.5430000000	38
82.5730000000	35
82.6030000000	42
82.6330000000	34
82.6630000000	36
82.6930000000	38
82.7230000000	39
82.7530000000	38
82.7830000000	37
82.8130000000	29
82.8430000000	42
82.8730000000	37
82.9030000000	40
82.9330000000	42
82.9630000000	37
82.9930000000	45
83.0230000000	35
83.0530000000	44
83.0830000000	38
83.1130000000	28
83.1430000000	37
83.1730000000	44
83.2030000000	41
83.2330000000	38
83.2630000000	42
83.2930000000	43
83.3230000000	30
83.3530000000	47
83.3830000000	46
83.4130000000	36
83.4430000000	45
83.4730000000	41
83.5030000000	41
83.5330000000	36
83.5630000000	30
83.5930000000	30
83.6230000000	36
83.6530000000	37
83.6830000000	36
83.7130000000	31
83.7430000000	33
83.7730000000	34
83.8030000000	26
83.8330000000	45
83.8630000000	38
83.8930000000	44
83.9230000000	43
83.9530000000	48
83.9830000000	34
84.0130000000	40
84.0430000000	51
84.0730000000	29
84.1030000000	32
84.1330000000	49
84.1630000000	42
84.1930000000	37
84.2230000000	44
84.2530000000	36
84.2830000000	38
84.3130000000	35
84.3430000000	41
84.3730000000	41
84.4030000000	58
84.4330000000	40
84.4630000000	37
84.4930000000	38
84.5230000000	38
84.5530000000	46
84.5830000000	34
84.6130000000	47
84.6430000000	44
84.6730000000	35
84.7030000000	36
84.7330000000	43
84.7630000000	41
84.7930000000	47
84.8230000000	49
84.8530000000	41
84.8830000000	43
84.9130000000	39
84.9430000000	46
84.9730000000	31
85.0030000000	41
85.0330000000	47
85.0630000000	30
85.0930000000	34
85.1230000000	28
85.1530000000	36
85.1830000000	52
85.2130000000	34
85.2430000000	38
85.2730000000	36
85.3030000000	37
85.3330000000	35
85.3630000000	42
85.3930000000	40
85.4230000000	36
85.4530000000	31
85.4830000000	29
85.5130000000	38
85.5430000000	27
85.5730000000	44
85.6030000000	36
85.6330000000	49
85.6630000000	44
85.6930000000	37
85.7230000000	32
85.7530000000	30
85.7830000000	31
85.8130000000	45
85.8430000000	35
85.8730000000	45
85.9030000000	47
85.9330000000	51
85.9630000000	42
85.9930000000	32
86.0230000000	38
86.0530000000	40
86.0830000000	37
86.1130000000	31
86.1430000000	29
86.1730000000	47
86.2030000000	39
86.2330000000	35
86.2630000000	38
86.2930000000	32
86.3230000000	35
86.3530000000	45
86.3830000000	41
86.4130000000	39
86.4430000000	48
86.4730000000	45
86.5030000000	32
86.5330000000	27
86.5630000000	34
86.5930000000	38
86.6230000000	40
86.6530000000	39
86.6830000000	39
86.7130000000	44
86.7430000000	36
86.7730000000	42
86.8030000000	39
86.8330000000	39
86.8630000000	47
86.8930000000	43
86.9230000000	43
86.9530000000	45
86.9830000000	45
87.0130000000	47
87.0430000000	53
87.0730000000	50
87.1030000000	41
87.1330000000	35
87.1630000000	36
87.1930000000	37
87.2230000000	47
87.2530000000	47
87.2830000000	36
87.3130000000	46
87.3430000000	35
87.3730000000	48
87.4030000000	48
87.4330000000	37
87.4630000000	40
87.4930000000	41
87.5230000000	40
87.5530000000	47
87.5830000000	55
87.6130000000	40
87.6430000000	43
87.6730000000	45
87.7030000000	35
87.7330000000	39
87.7630000000	37
87.7930000000	42
87.8230000000	36
87.8530000000	38
87.8830000000	32
87.9130000000	37
87.9430000000	44
87.9730000000	44
88.0030000000	39
88.0330000000	35
88.0630000000	43
88.0930000000	35
88.1230000000	42
88.1530000000	42
88.1830000000	40
88.2130000000	40
88.2430000000	26
88.2730000000	42
88.3030000000	35
88.3330000000	44
88.3630000000	36
88.3930000000	36
88.4230000000	40
88.4530000000	34
88.4830000000	45
88.5130000000	39
88.5430000000	38
88.5730000000	44
88.6030000000	44
88.6330000000	46
88.6630000000	50
88.6930000000	42
88.7230000000	48
88.7530000000	44
88.7830000000	47
88.8130000000	53
88.8430000000	80
88.8730000000	63
88.9030000000	58
88.9330000000	59
88.9630000000	47
88.9930000000	50
89.0230000000	43
89.0530000000	48
89.0830000000	52
89.1130000000	35
89.1430000000	45
89.1730000000	53
89.2030000000	38
89.2330000000	38
89.2630000000	39
89.2930000000	36
89.3230000000	29
89.3530000000	49
89.3830000000	30
89.4130000000	34
89.4430000000	31
89.4730000000	30
89.5030000000	38
89.5330000000	39
89.5630000000	35
89.5930000000	38
89.6230000000	46
89.6530000000	45
89.6830000000	37
89.7130000000	39
89.7430000000	40
89.7730000000	37
89.8030000000	35
89.8330000000	41
89.8630000000	51
89.8930000000	37
89.9230000000	34
89.9530000000	44
89.9830000000	39
90.0130000000	37
90.0430000000	37
90.0730000000	36
90.1030000000	39
90.1330000000	48
90.1630000000	37
90.1930000000	41
90.2230000000	41
90.2530000000	44
90.2830000000	39
90.3130000000	47
90.3430000000	44
90.3730000000	43
90.4030000000	32
90.4330000000	28
90.4630000000	28
90.4930000000	50
90.5230000000	35
90.5530000000	44
90.5830000000	35
90.6130000000	38
90.6430000000	41
90.6730000000	49
90.7030000000	38
90.7330000000	40
90.7630000000	37
90.7930000000	40
90.8230000000	31
90.8530000000	46
90.8830000000	38
90.9130000000	44
90.9430000000	44
90.9730000000	34
91.0030000000	42
91.0330000000	33
91.0630000000	31
91.0930000000	42
91.1230000000	45
91.1530000000	50
91.1830000000	37
91.2130000000	40
91.2430000000	45
91.2730000000	42
91.3030000000	48
91.3330000000	41
91.3630000000	51
91.3930000000	43
91.4230000000	44
91.4530000000	35
91.4830000000	42
91.5130000000	39
91.5430000000	32
91.5730000000	35
91.6030000000	44
91.6330000000	41
91.6630000000	40
91.6930000000	44
91.7230000000	31
91.7530000000	46
91.7830000000	37
91.8130000000	27
91.8430000000	37
91.8730000000	47
91.9030000000	45
91.9330000000	46
91.9630000000	39
91.9930000000	32
92.0230000000	45
92.0530000000	37
92.0830000000	36
92.1130000000	40
92.1430000000	29
92.1730000000	30
92.2030000000	35
92.2330000000	41
92.2630000000	43
92.2930000000	35
92.3230000000	33
92.3530000000	39
92.3830000000	40
92.4130000000	40
92.4430000000	54
92.4730000000	26
92.5030000000	49
92.5330000000	32
92.5630000000	42
92.5930000000	47
92.6230000000	52
92.6530000000	46
92.6830000000	34
92.7130000000	40
92.7430000000	41
92.7730000000	35
92.8030000000	40
92.8330000000	42
92.8630000000	39
92.8930000000	38
92.9230000000	37
92.9530000000	48
92.9830000000	35
93.0130000000	36
93.0430000000	46
93.0730000000	50
93.1030000000	40
93.1330000000	44
93.1630000000	46
93.1930000000	37
93.2230000000	37
93.2530000000	46
93.2830000000	41
93.3130000000	30
93.3430000000	54
93.3730000000	41
93.4030000000	30
93.4330000000	37
93.4630000000	39
93.4930000000	46
93.5230000000	35
93.5530000000	39
93.5830000000	30
93.6130000000	45
93.6430000000	33
93.6730000000	44
93.7030000000	53
93.7330000000	42
93.7630000000	43
93.7930000000	41
93.8230000000	49
93.8530000000	43
93.8830000000	40
93.9130000000	52
93.9430000000	43
93.9730000000	48
94.0030000000	51
94.0330000000	41
94.0630000000	40
94.0930000000	44
94.1230000000	44
94.1530000000	38
94.1830000000	32
94.2130000000	47
94.2430000000	49
94.2730000000	46
94.3030000000	40
94.3330000000	32
94.3630000000	36
94.3930000000	49
94.4230000000	43
94.4530000000	41
94.4830000000	40
94.5130000000	39
94.5430000000	39
94.5730000000	39
94.6030000000	56
94.6330000000	54
94.6630000000	53
94.6930000000	67
94.7230000000	67
94.7530000000	61
94.7830000000	57
94.8130000000	61
94.8430000000	64
94.8730000000	74
94.9030000000	64
94.9330000000	55
94.9630000000	50
94.9930000000	47
95.0230000000	47
95.0530000000	47
95.0830000000	44
95.1130000000	50
95.1430000000	59
95.1730000000	42
95.2030000000	43
95.2330000000	32
95.2630000000	37
95.2930000000	40
95.3230000000	36
95.3530000000	55
95.3830000000	35
95.4130000000	41
95.4430000000	37
95.4730000000	47
95.5030000000	43
95.5330000000	44
95.5630000000	35
95.5930000000	37
95.6230000000	43
95.6530000000	43
95.6830000000	46
95.7130000000	39
95.7430000000	32
95.7730000000	39
95.8030000000	34
95.8330000000	33
95.8630000000	44
95.8930000000	38
95.9230000000	36
95.9530000000	30
95.9830000000	25
96.0130000000	37
96.0430000000	43
96.0730000000	40
96.1030000000	41
96.1330000000	41
96.1630000000	40
96.1930000000	39
96.2230000000	51
96.2530000000	28
96.2830000000	37
96.3130000000	42
96.3430000000	37
96.3730000000	40
96.4030000000	32
96.4330000000	29
96.4630000000	25
96.4930000000	43
96.5230000000	44
96.5530000000	48
96.5830000000	40
96.6130000000	42
96.6430000000	50
96.6730000000	41
96.7030000000	45
96.7330000000	42
96.7630000000	35
96.7930000000	42
96.8230000000	43
96.8530000000	43
96.8830000000	38
96.9130000000	31
96.9430000000	33
96.9730000000	39
97.0030000000	52
97.0330000000	43
97.0630000000	31
97.0930000000	41
97.1230000000	48
97.1530000000	37
97.1830000000	43
97.2130000000	42
97.2430000000	38
97.2730000000	29
97.3030000000	41
97.3330000000	43
97.3630000000	40
97.3930000000	45
97.4230000000	40
97.4530000000	28
97.4830000000	33
97.5130000000	52
97.5430000000	40
97.5730000000	41
97.6030000000	41
97.6330000000	41
97.6630000000	38
97.6930000000	42
97.7230000000	27
97.7530000000	40
97.7830000000	37
97.8130000000	30
97.8430000000	31
97.8730000000	29
97.9030000000	40
97.9330000000	36
97.9630000000	53
97.9930000000	37
98.0230000000	45
98.0530000000	38
98.0830000000	40
98.1130000000	44
98.1430000000	49
98.1730000000	29
98.2030000000	43
98.2330000000	43
98.2630000000	37
98.2930000000	28
98.3230000000	42
98.3530000000	36
98.3830000000	28
98.4130000000	42
98.4430000000	37
98.4730000000	41
98.5030000000	40
98.5330000000	34
98.5630000000	41
98.5930000000	39
98.6230000000	36
98.6530000000	39
98.6830000000	43
98.7130000000	30
98.7430000000	33
98.7730000000	41
98.8030000000	34
98.8330000000	39
98.8630000000	50
98.8930000000	43
98.9230000000	45
98.9530000000	35
98.9830000000	48
99.0130000000	37
99.0430000000	42
99.0730000000	35
99.1030000000	45
99.1330000000	50
99.1630000000	45
99.1930000000	33
99.2230000000	37
99.2530000000	35
99.2830000000	38
99.3130000000	34
99.3430000000	30
99.3730000000	42
99.4030000000	24
99.4330000000	41
99.4630000000	50
99.4930000000	34
99.5230000000	28
99.5530000000	35
99.5830000000	38
99.6130000000	48
99.6430000000	36
99.6730000000	36
99.7030000000	33
99.7330000000	31
99.7630000000	42
99.7930000000	31
99.8230000000	32
99.8530000000	31
99.8830000000	32
99.9130000000	46
99.9430000000	38
99.9730000000	29
100.0030000000	39
100.0330000000	37
100.0630000000	35
100.0930000000	47
100.1230000000	36
100.1530000000	35
100.1830000000	43
100.2130000000	38
100.2430000000	39
100.2730000000	32
100.3030000000	34
100.3330000000	41
100.3630000000	35
100.3930000000	28
100.4230000000	55
100.4530000000	49
100.4830000000	31
100.5130000000	29
100.5430000000	48
100.5730000000	43
100.6030000000	30
100.6330000000	56
100.6630000000	44
100.6930000000	38
100.7230000000	35
100.7530000000	49
100.7830000000	42
100.8130000000	40
100.8430000000	52
100.8730000000	40
100.9030000000	29
100.9330000000	40
100.9630000000	43
100.9930000000	35
101.0230000000	41
101.0530000000	45
101.0830000000	41
101.1130000000	32
101.1430000000	30
101.1730000000	36
101.2030000000	24
101.2330000000	35
101.2630000000	48
101.2930000000	47
101.3230000000	33
101.3530000000	33
101.3830000000	35
101.4130000000	46
101.4430000000	38
101.4730000000	30
101.5030000000	33
101.5330000000	37
101.5630000000	38
101.5930000000	40
101.6230000000	37
101.6530000000	31
101.6830000000	33
101.7130000000	34
101.7430000000	26
101.7730000000	32
101.8030000000	32
101.8330000000	26
101.8630000000	31
101.8930000000	33
101.9230000000	32
101.9530000000	39
101.9830000000	34
102.0130000000	32
102.0430000000	35
102.0730000000	35
102.1030000000	46
102.1330000000	46
102.1630000000	33
102.1930000000	34
102.2230000000	43
102.2530000000	26
102.2830000000	48
102.3130000000	40
102.3430000000	34
102.3730000000	30
102.4030000000	31
102.4330000000	35
102.4630000000	42
102.4930000000	34
102.5230000000	48
102.5530000000	31
102.5830000000	40
102.6130000000	44
102.6430000000	44
102.6730000000	21
102.7030000000	28
102.7330000000	34
102.7630000000	40
102.7930000000	38
102.8230000000	35
102.8530000000	39
102.8830000000	37
102.9130000000	34
102.9430000000	28
102.9730000000	33
103.0030000000	35
103.0330000000	33
103.0630000000	35
103.0930000000	45
103.1230000000	33
103.1530000000	35
103.1830000000	42
103.2130000000	36
103.2430000000	35
103.2730000000	36
103.3030000000	42
103.3330000000	54
103.3630000000	41
103.3930000000	38
103.4230000000	39
103.4530000000	42
103.4830000000	39
103.5130000000	40
103.5430000000	37
103.5730000000	45
103.6030000000	47
103.6330000000	53
103.6630000000	43
103.6930000000	38
103.7230000000	39
103.7530000000	32
103.7830000000	33
103.8130000000	49
103.8430000000	31
103.8730000000	36
103.9030000000	34
103.9330000000	41
103.9630000000	44
103.9930000000	23
104.0230000000	31
104.0530000000	34
104.0830000000	35
104.1130000000	26
104.1430000000	36
104.1730000000	34
104.2030000000	43
104.2330000000	42
104.2630000000	33
104.2930000000	36
104.3230000000	39
104.3530000000	37
104.3830000000	35
104.4130000000	48
104.4430000000	40
104.4730000000	50
104.5030000000	58
104.5330000000	36
104.5630000000	44
104.5930000000	41
104.6230000000	38
104.6530000000	39
104.6830000000	38
104.7130000000	31
104.7430000000	48
104.7730000000	47
104.8030000000	34
104.8330000000	39
104.8630000000	39
104.8930000000	40
104.9230000000	35
104.9530000000	39
104.9830000000	28
105.0130000000	28
105.0430000000	38
105.0730000000	34
105.1030000000	29
105.1330000000	30
105.1630000000	40
105.1930000000	44
105.2230000000	30
105.2530000000	38
105.2830000000	32
105.3130000000	35
105.3430000000	23
105.3730000000	30
105.4030000000	33
105.4330000000	46
105.4630000000	43
105.4930000000	36
105.5230000000	36
105.5530000000	30
105.5830000000	34
105.6130000000	36
105.6430000000	43
105.6730000000	30
105.7030000000	31
105.7330000000	26
105.7630000000	27
105.7930000000	27
105.8230000000	31
105.8530000000	25
105.8830000000	31
105.9130000000	38
105.9430000000	29
105.9730000000	30
106.0030000000	38
106.0330000000	35
106.0630000000	36
106.0930000000	31
106.1230000000	42
106.1530000000	23
106.1830000000	38
106.2130000000	34
106.2430000000	40
106.2730000000	27
106.3030000000	20
106.3330000000	42
106.3630000000	29
106.3930000000	33
106.4230000000	37
106.4530000000	43
106.4830000000	42
106.5130000000	37
106.5430000000	33
106.5730000000	39
106.6030000000	42
106.6330000000	36
106.6630000000	29
106.6930000000	32
106.7230000000	43
106.7530000000	29
106.7830000000	44
106.8130000000	32
106.8430000000	29
106.8730000000	35
106.9030000000	44
106.9330000000	44
106.9630000000	38
106.9930000000	45
107.0230000000	44
107.0530000000	34
107.0830000000	32
107.1130000000	52
107.1430000000	31
107.1730000000	29
107.2030000000	43
107.2330000000	32
107.2630000000	25
107.2930000000	36
107.3230000000	28
107.3530000000	39
107.3830000000	37
107.4130000000	39
107.4430000000	31
107.4730000000	37
107.5030000000	42
107.5330000000	31
107.5630000000	32
107.5930000000	35
107.6230000000	38
107.6530000000	33
107.6830000000	39
107.7130000000	29
107.7430000000	19
107.7730000000	33
107.8030000000	41
107.8330000000	30
107.8630000000	35
107.8930000000	43
107.9230000000	41
107.9530000000	40
107.9830000000	27
108.0130000000	35
108.0430000000	33
108.0730000000	39
108.1030000000	36
108.1330000000	31
108.1630000000	44
108.1930000000	34
108.2230000000	45
108.2530000000	35
108.2830000000	39
108.3130000000	30
108.3430000000	34
108.3730000000	39
108.4030000000	34
108.4330000000	43
108.4630000000	34
108.4930000000	33
108.5230000000	45
108.5530000000	29
108.5830000000	33
108.6130000000	43
108.6430000000	38
108.6730000000	40
108.7030000000	31
108.7330000000	37
108.7630000000	31
108.7930000000	41
108.8230000000	36
108.8530000000	34
108.8830000000	38
108.9130000000	36
108.9430000000	40
108.9730000000	24
109.0030000000	41
109.0330000000	41
109.0630000000	32
109.0930000000	29
109.1230000000	34
109.1530000000	34
109.1830000000	43
109.2130000000	28
109.2430000000	39
109.2730000000	33
109.3030000000	31
109.3330000000	30
109.3630000000	35
109.3930000000	45
109.4230000000	34
109.4530000000	35
109.4830000000	28
109.5130000000	32
109.5430000000	46
109.5730000000	38
109.6030000000	29
109.6330000000	43
109.6630000000	32
109.6930000000	34
109.7230000000	23
109.7530000000	29
109.7830000000	39
109.8130000000	54
109.8430000000	42
109.8730000000	37
109.9030000000	51
109.9330000000	49
109.9630000000	42
109.9930000000	41
110.0230000000	41
110.0530000000	32
110.0830000000	39
110.1130000000	33
110.1430000000	36
110.1730000000	45
110.2030000000	42
110.2330000000	38
110.2630000000	41
110.2930000000	40
110.3230000000	36
110.3530000000	37
110.3830000000	44
110.4130000000	39
110.4430000000	25
110.4730000000	29
110.5030000000	30
110.5330000000	26
110.5630000000	36
110.5930000000	35
110.6230000000	36
110.6530000000	37
110.6830000000	38
110.7130000000	37
110.7430000000	37
110.7730000000	36
110.8030000000	38
110.8330000000	40
110.8630000000	41
110.8930000000	39
110.9230000000	49
110.9530000000	41
110.9830000000	36
111.0130000000	42
111.0430000000	35
111.0730000000	36
111.1030000000	45
111.1330000000	41
111.1630000000	35
111.1930000000	25
111.2230000000	22
111.2530000000	42
111.2830000000	36
111.3130000000	39
111.3430000000	35
111.3730000000	33
111.4030000000	29
111.4330000000	38
111.4630000000	33
111.4930000000	45
111.5230000000	49
111.5530000000	39
111.5830000000	34
111.6130000000	43
111.6430000000	31
111.6730000000	43
111.7030000000	36
111.7330000000	33
111.7630000000	45
111.7930000000	41
111.8230000000	29
111.8530000000	43
111.8830000000	35
111.9130000000	31
111.9430000000	34
111.9730000000	40
112.0030000000	33
112.0330000000	30
112.0630000000	29
112.0930000000	26
112.1230000000	33
112.1530000000	42
112.1830000000	37
112.2130000000	39
112.2430000000	32
112.2730000000	32
112.3030000000	46
112.3330000000	39
112.3630000000	50
112.3930000000	45
112.4230000000	42
112.4530000000	35
112.4830000000	34
112.5130000000	35
112.5430000000	25
112.5730000000	33
112.6030000000	25
112.6330000000	32
112.6630000000	46
112.6930000000	43
112.7230000000	33
112.7530000000	35
112.7830000000	37
112.8130000000	33
112.8430000000	42
112.8730000000	37
112.9030000000	42
112.9330000000	48
112.9630000000	48
112.9930000000	30
113.0230000000	32
113.0530000000	37
113.0830000000	42
113.1130000000	43
113.1430000000	48
113.1730000000	49
113.2030000000	33
113.2330000000	31
113.2630000000	38
113.2930000000	37
113.3230000000	44
113.3530000000	31
113.3830000000	32
113.4130000000	45
113.4430000000	44
113.4730000000	35
113.5030000000	45
113.5330000000	48
113.5630000000	35
113.5930000000	38
113.6230000000	45
113.6530000000	38
113.6830000000	38
113.7130000000	36
113.7430000000	32
113.7730000000	30
113.8030000000	36
113.8330000000	44
113.8630000000	49
113.8930000000	42
113.9230000000	28
113.9530000000	39
113.9830000000	38
114.0130000000	36
114.0430000000	40
114.0730000000	33
114.1030000000	39
114.1330000000	43
114.1630000000	36
114.1930000000	37
114.2230000000	31
114.2530000000	36
114.2830000000	48
114.3130000000	48
114.3430000000	44
114.3730000000	28
114.4030000000	31
114.4330000000	40
114.4630000000	1
114.4930000000	1
114.5230000000	1
114.5530000000	1
114.5830000000	1
