0.3130000000	1
0.3430000000	2
0.3730000000	1
0.4030000000	1
0.4330000000	1
0.4630000000	1
0.4930000000	1
0.5230000000	1
0.5530000000	1
0.5830000000	2
0.6130000000	1
0.6430000000	1
0.6730000000	1
0.7030000000	1
0.7330000000	1
0.7630000000	1
0.7930000000	1
0.8230000000	1
0.8530000000	2
0.8830000000	2
0.9130000000	1
0.9430000000	1
0.9730000000	1
1.0030000000	1
1.0330000000	1
1.0630000000	1
1.0930000000	1
1.1230000000	1
1.1530000000	1
1.1830000000	1
1.2130000000	1
1.2430000000	1
1.2730000000	1
1.3030000000	1
1.3330000000	1
1.3630000000	1
1.3930000000	1
1.4230000000	2
1.4530000000	2
1.4830000000	1
1.5130000000	1
1.5430000000	2
1.5730000000	1
1.6030000000	2
1.6330000000	1
1.6630000000	1
1.6930000000	1
1.7230000000	1
1.7530000000	2
1.7830000000	1
1.8130000000	1
1.8430000000	1
1.8730000000	1
1.9030000000	1
1.9330000000	2
1.9630000000	1
1.9930000000	2
2.0230000000	2
2.0530000000	1
2.0830000000	1
2.1130000000	1
2.1430000000	2
2.1730000000	2
2.2030000000	1
2.2330000000	2
2.2630000000	2
2.2930000000	1
2.3230000000	1
2.3530000000	1
2.3830000000	1
2.4130000000	2
2.4430000000	1
2.4730000000	2
2.5030000000	2
2.5330000000	1
2.5630000000	3
2.5930000000	3
2.6230000000	2
2.6530000000	2
2.6830000000	1
2.7130000000	1
2.7430000000	1
2.7730000000	2
2.8030000000	2
2.8330000000	1
2.8630000000	1
2.8930000000	2
2.9230000000	2
2.9530000000	4
2.9830000000	1
3.0130000000	2
3.0430000000	1
3.0730000000	1
3.1030000000	2
3.1330000000	2
3.1630000000	1
3.1930000000	2
3.2230000000	3
3.2530000000	3
3.2830000000	2
3.3130000000	2
3.3430000000	1
3.3730000000	4
3.4030000000	3
3.4330000000	1
3.4630000000	1
3.4930000000	2
3.5230000000	4
3.5530000000	1
3.5830000000	1
3.6130000000	1
3.6430000000	2
3.6730000000	2
3.7030000000	1
3.7330000000	3
3.7630000000	2
3.7930000000	2
3.8230000000	2
3.8530000000	1
3.8830000000	1
3.9130000000	3
3.9430000000	2
3.9730000000	4
4.0030000000	3
4.0330000000	3
4.0630000000	2
4.0930000000	2
4.1230000000	3
4.1530000000	4
4.1830000000	1
4.2130000000	2
4.2430000000	2
4.2730000000	5
4.3030000000	3
4.3330000000	4
4.3630000000	7
4.3930000000	4
4.4230000000	5
4.4530000000	12
4.4830000000	11
4.5130000000	29
4.5430000000	43
4.5730000000	62
4.6030000000	86
4.6330000000	112
4.6630000000	113
4.6930000000	132
4.7230000000	133
4.7530000000	137
4.7830000000	143
4.8130000000	156
4.8430000000	162
4.8730000000	152
4.9030000000	131
4.9330000000	157
4.9630000000	149
4.9930000000	153
5.0230000000	155
5.0530000000	151
5.0830000000	152
5.1130000000	136
5.1430000000	128
5.1730000000	157
5.2030000000	129
5.2330000000	129
5.2630000000	156
5.2930000000	136
5.3230000000	167
5.3530000000	136
5.3830000000	145
5.4130000000	162
5.4430000000	163
5.4730000000	138
5.5030000000	143
5.5330000000	145
5.5630000000	137
5.5930000000	160
5.6230000000	134
5.6530000000	130
5.6830000000	163
5.7130000000	145
5.7430000000	153
5.7730000000	141
5.8030000000	151
5.8330000000	155
5.8630000000	153
5.8930000000	150
5.9230000000	131
5.9530000000	174
5.9830000000	151
6.0130000000	155
6.0430000000	151
6.0730000000	154
6.1030000000	172
6.1330000000	144
6.1630000000	146
6.1930000000	157
6.2230000000	154
6.2530000000	159
6.2830000000	173
6.3130000000	151
6.3430000000	147
6.3730000000	132
6.4030000000	162
6.4330000000	129
6.4630000000	140
6.4930000000	150
6.5230000000	143
6.5530000000	131
6.5830000000	156
6.6130000000	158
6.6430000000	134
6.6730000000	158
6.7030000000	154
6.7330000000	141
6.7630000000	130
6.7930000000	136
6.8230000000	156
6.8530000000	152
6.8830000000	154
6.9130000000	160
6.9430000000	136
6.9730000000	146
7.0030000000	137
7.0330000000	155
7.0630000000	147
7.0930000000	138
7.1230000000	141
7.1530000000	168
7.1830000000	149
7.2130000000	138
7.2430000000	150
7.2730000000	138
7.3030000000	142
7.3330000000	145
7.3630000000	134
7.3930000000	140
7.4230000000	159
7.4530000000	133
7.4830000000	131
7.5130000000	161
7.5430000000	149
7.5730000000	145
7.6030000000	154
7.6330000000	146
7.6630000000	135
7.6930000000	127
7.7230000000	147
7.7530000000	182
7.7830000000	150
7.8130000000	133
7.8430000000	153
7.8730000000	143
7.9030000000	146
7.9330000000	131
7.9630000000	114
7.9930000000	130
8.0230000000	142
8.0530000000	133
8.0830000000	116
8.1130000000	145
8.1430000000	139
8.1730000000	156
8.2030000000	123
8.2330000000	143
8.2630000000	164
8.2930000000	167
8.3230000000	148
8.3530000000	144
8.3830000000	141
8.4130000000	134
8.4430000000	165
8.4730000000	125
8.5030000000	145
8.5330000000	167
8.5630000000	162
8.5930000000	141
8.6230000000	155
8.6530000000	130
8.6830000000	150
8.7130000000	135
8.7430000000	134
8.7730000000	137
8.8030000000	167
8.8330000000	154
8.8630000000	158
8.8930000000	138
8.9230000000	150
8.9530000000	132
8.9830000000	140
9.0130000000	161
9.0430000000	148
9.0730000000	160
9.1030000000	135
9.1330000000	134
9.1630000000	153
9.1930000000	138
9.2230000000	135
9.2530000000	138
9.2830000000	146
9.3130000000	152
9.3430000000	142
9.3730000000	142
9.4030000000	153
9.4330000000	143
9.4630000000	159
9.4930000000	139
9.5230000000	121
9.5530000000	152
9.5830000000	169
9.6130000000	159
9.6430000000	154
9.6730000000	146
9.7030000000	150
9.7330000000	150
9.7630000000	145
9.7930000000	148
9.8230000000	149
9.8530000000	166
9.8830000000	149
9.9130000000	133
9.9430000000	152
9.9730000000	146
10.0030000000	156
10.0330000000	154
10.0630000000	136
10.0930000000	161
10.1230000000	160
10.1530000000	138
10.1830000000	153
10.2130000000	131
10.2430000000	135
10.2730000000	144
10.3030000000	145
10.3330000000	136
10.3630000000	150
10.3930000000	145
10.4230000000	154
10.4530000000	134
10.4830000000	157
10.5130000000	138
10.5430000000	157
10.5730000000	136
10.6030000000	164
10.6330000000	146
10.6630000000	147
10.6930000000	139
10.7230000000	135
10.7530000000	146
10.7830000000	145
10.8130000000	144
10.8430000000	148
10.8730000000	153
10.9030000000	141
10.9330000000	141
10.9630000000	133
10.9930000000	147
11.0230000000	145
11.0530000000	148
11.0830000000	137
11.1130000000	152
11.1430000000	130
11.1730000000	143
11.2030000000	127
11.2330000000	154
11.2630000000	157
11.2930000000	153
11.3230000000	154
11.3530000000	160
11.3830000000	149
11.4130000000	147
11.4430000000	155
11.4730000000	165
11.5030000000	147
11.5330000000	113
11.5630000000	153
11.5930000000	134
11.6230000000	162
11.6530000000	153
11.6830000000	162
11.7130000000	161
11.7430000000	143
11.7730000000	154
11.8030000000	158
11.8330000000	139
11.8630000000	112
11.8930000000	133
11.9230000000	147
11.9530000000	131
11.9830000000	147
12.0130000000	148
12.0430000000	127
12.0730000000	159
12.1030000000	136
12.1330000000	155
12.1630000000	155
12.1930000000	145
12.2230000000	137
12.2530000000	137
12.2830000000	137
12.3130000000	138
12.3430000000	142
12.3730000000	154
12.4030000000	158
12.4330000000	158
12.4630000000	153
12.4930000000	151
12.5230000000	157
12.5530000000	159
12.5830000000	142
12.6130000000	156
12.6430000000	155
12.6730000000	141
12.7030000000	137
12.7330000000	139
12.7630000000	140
12.7930000000	149
12.8230000000	152
12.8530000000	153
12.8830000000	146
12.9130000000	140
12.9430000000	157
12.9730000000	161
13.0030000000	139
13.0330000000	137
13.0630000000	146
13.0930000000	133
13.1230000000	130
13.1530000000	145
13.1830000000	119
13.2130000000	134
13.2430000000	137
13.2730000000	133
13.3030000000	167
13.3330000000	134
13.3630000000	160
13.3930000000	152
13.4230000000	146
13.4530000000	150
13.4830000000	154
13.5130000000	151
13.5430000000	145
13.5730000000	142
13.6030000000	159
13.6330000000	139
13.6630000000	166
13.6930000000	146
13.7230000000	145
13.7530000000	147
13.7830000000	136
13.8130000000	136
13.8430000000	137
13.8730000000	137
13.9030000000	141
13.9330000000	127
13.9630000000	145
13.9930000000	153
14.0230000000	143
14.0530000000	126
14.0830000000	121
14.1130000000	139
14.1430000000	167
14.1730000000	146
14.2030000000	146
14.2330000000	150
14.2630000000	143
14.2930000000	147
14.3230000000	135
14.3530000000	138
14.3830000000	135
14.4130000000	128
14.4430000000	142
14.4730000000	120
14.5030000000	134
14.5330000000	129
14.5630000000	143
14.5930000000	143
14.6230000000	165
14.6530000000	127
14.6830000000	148
14.7130000000	145
14.7430000000	144
14.7730000000	160
14.8030000000	157
14.8330000000	158
14.8630000000	154
14.8930000000	169
14.9230000000	161
14.9530000000	166
14.9830000000	160
15.0130000000	143
15.0430000000	159
15.0730000000	167
15.1030000000	169
15.1330000000	146
15.1630000000	146
15.1930000000	133
15.2230000000	141
15.2530000000	161
15.2830000000	133
15.3130000000	136
15.3430000000	142
15.3730000000	155
15.4030000000	151
15.4330000000	142
15.4630000000	137
15.4930000000	157
15.5230000000	174
15.5530000000	162
15.5830000000	175
15.6130000000	165
15.6430000000	153
15.6730000000	147
15.7030000000	122
15.7330000000	150
15.7630000000	158
15.7930000000	145
15.8230000000	170
15.8530000000	164
15.8830000000	138
15.9130000000	137
15.9430000000	137
15.9730000000	132
16.0030000000	127
16.0330000000	140
16.0630000000	129
16.0930000000	173
16.1230000000	160
16.1530000000	151
16.1830000000	136
16.2130000000	148
16.2430000000	138
16.2730000000	140
16.3030000000	141
16.3330000000	165
16.3630000000	144
16.3930000000	145
16.4230000000	135
16.4530000000	152
16.4830000000	143
16.5130000000	127
16.5430000000	154
16.5730000000	139
16.6030000000	160
16.6330000000	150
16.6630000000	130
16.6930000000	121
16.7230000000	150
16.7530000000	134
16.7830000000	134
16.8130000000	149
16.8430000000	169
16.8730000000	139
16.9030000000	138
16.9330000000	138
16.9630000000	151
16.9930000000	132
17.0230000000	144
17.0530000000	150
17.0830000000	148
17.1130000000	149
17.1430000000	150
17.1730000000	162
17.2030000000	148
17.2330000000	131
17.2630000000	139
17.2930000000	147
17.3230000000	139
17.3530000000	136
17.3830000000	147
17.4130000000	113
17.4430000000	149
17.4730000000	153
17.5030000000	138
17.5330000000	142
17.5630000000	142
17.5930000000	145
17.6230000000	124
17.6530000000	143
17.6830000000	153
17.7130000000	144
17.7430000000	146
17.7730000000	170
17.8030000000	171
17.8330000000	146
17.8630000000	129
17.8930000000	128
17.9230000000	139
17.9530000000	152
17.9830000000	149
18.0130000000	122
18.0430000000	115
18.0730000000	125
18.1030000000	130
18.1330000000	161
18.1630000000	141
18.1930000000	115
18.2230000000	128
18.2530000000	159
18.2830000000	149
18.3130000000	121
18.3430000000	171
18.3730000000	148
18.4030000000	122
18.4330000000	150
18.4630000000	155
18.4930000000	152
18.5230000000	144
18.5530000000	127
18.5830000000	131
18.6130000000	152
18.6430000000	152
18.6730000000	151
18.7030000000	155
18.7330000000	150
18.7630000000	129
18.7930000000	132
18.8230000000	142
18.8530000000	157
18.8830000000	138
18.9130000000	130
18.9430000000	160
18.9730000000	138
19.0030000000	164
19.0330000000	175
19.0630000000	152
19.0930000000	161
19.1230000000	175
19.1530000000	146
19.1830000000	137
19.2130000000	138
19.2430000000	156
19.2730000000	139
19.3030000000	141
19.3330000000	130
19.3630000000	153
19.3930000000	146
19.4230000000	145
19.4530000000	129
19.4830000000	150
19.5130000000	133
19.5430000000	149
19.5730000000	123
19.6030000000	144
19.6330000000	175
19.6630000000	161
19.6930000000	149
19.7230000000	157
19.7530000000	172
19.7830000000	138
19.8130000000	130
19.8430000000	160
19.8730000000	158
19.9030000000	167
19.9330000000	152
19.9630000000	162
19.9930000000	157
20.0230000000	169
20.0530000000	160
20.0830000000	147
20.1130000000	147
20.1430000000	168
20.1730000000	168
20.2030000000	142
20.2330000000	158
20.2630000000	161
20.2930000000	160
20.3230000000	160
20.3530000000	162
20.3830000000	143
20.4130000000	137
20.4430000000	147
20.4730000000	141
20.5030000000	166
20.5330000000	147
20.5630000000	152
20.5930000000	187
20.6230000000	186
20.6530000000	193
20.6830000000	223
20.7130000000	297
20.7430000000	410
20.7730000000	502
20.8030000000	744
20.8330000000	883
20.8630000000	934
20.8930000000	865
20.9230000000	732
20.9530000000	520
20.9830000000	371
21.0130000000	285
21.0430000000	241
21.0730000000	191
21.1030000000	173
21.1330000000	189
21.1630000000	176
21.1930000000	163
21.2230000000	181
21.2530000000	157
21.2830000000	155
21.3130000000	169
21.3430000000	141
21.3730000000	156
21.4030000000	165
21.4330000000	164
21.4630000000	148
21.4930000000	155
21.5230000000	155
21.5530000000	164
21.5830000000	155
21.6130000000	158
21.6430000000	159
21.6730000000	174
21.7030000000	147
21.7330000000	147
21.7630000000	154
21.7930000000	163
21.8230000000	147
21.8530000000	164
21.8830000000	169
21.9130000000	159
21.9430000000	165
21.9730000000	170
22.0030000000	156
22.0330000000	164
22.0630000000	147
22.0930000000	151
22.1230000000	166
22.1530000000	164
22.1830000000	162
22.2130000000	153
22.2430000000	163
22.2730000000	155
22.3030000000	150
22.3330000000	150
22.3630000000	151
22.3930000000	159
22.4230000000	161
22.4530000000	166
22.4830000000	162
22.5130000000	160
22.5430000000	159
22.5730000000	163
22.6030000000	165
22.6330000000	156
22.6630000000	167
22.6930000000	167
22.7230000000	146
22.7530000000	154
22.7830000000	134
22.8130000000	161
22.8430000000	160
22.8730000000	147
22.9030000000	173
22.9330000000	154
22.9630000000	155
22.9930000000	175
23.0230000000	161
23.0530000000	162
23.0830000000	163
23.1130000000	155
23.1430000000	155
23.1730000000	166
23.2030000000	154
23.2330000000	175
23.2630000000	139
23.2930000000	152
23.3230000000	164
23.3530000000	162
23.3830000000	180
23.4130000000	154
23.4430000000	171
23.4730000000	164
23.5030000000	173
23.5330000000	186
23.5630000000	179
23.5930000000	154
23.6230000000	186
23.6530000000	161
23.6830000000	172
23.7130000000	146
23.7430000000	149
23.7730000000	151
23.8030000000	176
23.8330000000	155
23.8630000000	150
23.8930000000	163
23.9230000000	161
23.9530000000	157
23.9830000000	162
24.0130000000	173
24.0430000000	139
24.0730000000	162
24.1030000000	162
24.1330000000	157
24.1630000000	171
24.1930000000	162
24.2230000000	161
24.2530000000	151
24.2830000000	170
24.3130000000	166
24.3430000000	175
24.3730000000	196
24.4030000000	172
24.4330000000	156
24.4630000000	141
24.4930000000	175
24.5230000000	160
24.5530000000	154
24.5830000000	167
24.6130000000	165
24.6430000000	163
24.6730000000	148
24.7030000000	163
24.7330000000	185
24.7630000000	156
24.7930000000	154
24.8230000000	141
24.8530000000	143
24.8830000000	189
24.9130000000	161
24.9430000000	172
24.9730000000	182
25.0030000000	149
25.0330000000	161
25.0630000000	155
25.0930000000	170
25.1230000000	148
25.1530000000	158
25.1830000000	174
25.2130000000	166
25.2430000000	174
25.2730000000	165
25.3030000000	182
25.3330000000	146
25.3630000000	178
25.3930000000	160
25.4230000000	154
25.4530000000	144
25.4830000000	181
25.5130000000	147
25.5430000000	150
25.5730000000	160
25.6030000000	162
25.6330000000	178
25.6630000000	174
25.6930000000	177
25.7230000000	165
25.7530000000	199
25.7830000000	191
25.8130000000	187
25.8430000000	251
25.8730000000	326
25.9030000000	420
25.9330000000	584
25.9630000000	750
25.9930000000	1162
26.0230000000	1556
26.0530000000	1755
26.0830000000	1760
26.1130000000	1521
26.1430000000	1158
26.1730000000	774
26.2030000000	518
26.2330000000	369
26.2630000000	277
26.2930000000	232
26.3230000000	182
26.3530000000	168
26.3830000000	180
26.4130000000	175
26.4430000000	168
26.4730000000	161
26.5030000000	163
26.5330000000	163
26.5630000000	173
26.5930000000	162
26.6230000000	171
26.6530000000	166
26.6830000000	147
26.7130000000	122
26.7430000000	131
26.7730000000	167
26.8030000000	155
26.8330000000	150
26.8630000000	145
26.8930000000	139
26.9230000000	127
26.9530000000	128
26.9830000000	148
27.0130000000	155
27.0430000000	149
27.0730000000	139
27.1030000000	153
27.1330000000	153
27.1630000000	141
27.1930000000	160
27.2230000000	153
27.2530000000	121
27.2830000000	170
27.3130000000	143
27.3430000000	146
27.3730000000	144
27.4030000000	150
27.4330000000	145
27.4630000000	135
27.4930000000	138
27.5230000000	146
27.5530000000	165
27.5830000000	157
27.6130000000	124
27.6430000000	136
27.6730000000	132
27.7030000000	142
27.7330000000	145
27.7630000000	135
27.7930000000	135
27.8230000000	153
27.8530000000	145
27.8830000000	118
27.9130000000	118
27.9430000000	152
27.9730000000	149
28.0030000000	141
28.0330000000	139
28.0630000000	118
28.0930000000	166
28.1230000000	157
28.1530000000	199
28.1830000000	197
28.2130000000	186
28.2430000000	219
28.2730000000	227
28.3030000000	200
28.3330000000	209
28.3630000000	187
28.3930000000	163
28.4230000000	161
28.4530000000	141
28.4830000000	172
28.5130000000	146
28.5430000000	134
28.5730000000	134
28.6030000000	149
28.6330000000	139
28.6630000000	149
28.6930000000	147
28.7230000000	140
28.7530000000	138
28.7830000000	122
28.8130000000	130
28.8430000000	153
28.8730000000	116
28.9030000000	121
28.9330000000	114
28.9630000000	128
28.9930000000	125
29.0230000000	151
29.0530000000	136
29.0830000000	127
29.1130000000	115
29.1430000000	124
29.1730000000	113
29.2030000000	117
29.2330000000	126
29.2630000000	133
29.2930000000	133
29.3230000000	113
29.3530000000	122
29.3830000000	119
29.4130000000	131
29.4430000000	126
29.4730000000	117
29.5030000000	122
29.5330000000	135
29.5630000000	119
29.5930000000	124
29.6230000000	139
29.6530000000	118
29.6830000000	106
29.7130000000	127
29.7430000000	127
29.7730000000	123
29.8030000000	128
29.8330000000	118
29.8630000000	131
29.8930000000	108
29.9230000000	111
29.9530000000	109
29.9830000000	119
30.0130000000	110
30.0430000000	105
30.0730000000	125
30.1030000000	142
30.1330000000	117
30.1630000000	139
30.1930000000	117
30.2230000000	115
30.2530000000	107
30.2830000000	111
30.3130000000	116
30.3430000000	130
30.3730000000	137
30.4030000000	98
30.4330000000	119
30.4630000000	115
30.4930000000	128
30.5230000000	99
30.5530000000	93
30.5830000000	122
30.6130000000	101
30.6430000000	132
30.6730000000	109
30.7030000000	118
30.7330000000	117
30.7630000000	123
30.7930000000	122
30.8230000000	144
30.8530000000	122
30.8830000000	132
30.9130000000	125
30.9430000000	107
30.9730000000	132
31.0030000000	112
31.0330000000	120
31.0630000000	135
31.0930000000	115
31.1230000000	120
31.1530000000	120
31.1830000000	126
31.2130000000	108
31.2430000000	116
31.2730000000	116
31.3030000000	104
31.3330000000	109
31.3630000000	111
31.3930000000	127
31.4230000000	109
31.4530000000	130
31.4830000000	96
31.5130000000	104
31.5430000000	131
31.5730000000	99
31.6030000000	105
31.6330000000	107
31.6630000000	104
31.6930000000	98
31.7230000000	113
31.7530000000	110
31.7830000000	100
31.8130000000	106
31.8430000000	102
31.8730000000	114
31.9030000000	97
31.9330000000	90
31.9630000000	96
31.9930000000	109
32.0230000000	133
32.0530000000	112
32.0830000000	107
32.1130000000	110
32.1430000000	101
32.1730000000	105
32.2030000000	106
32.2330000000	110
32.2630000000	109
32.2930000000	126
32.3230000000	102
32.3530000000	105
32.3830000000	116
32.4130000000	104
32.4430000000	119
32.4730000000	109
32.5030000000	115
32.5330000000	96
32.5630000000	109
32.5930000000	101
32.6230000000	116
32.6530000000	97
32.6830000000	92
32.7130000000	115
32.7430000000	118
32.7730000000	96
32.8030000000	84
32.8330000000	89
32.8630000000	100
32.8930000000	99
32.9230000000	101
32.9530000000	117
32.9830000000	117
33.0130000000	103
33.0430000000	97
33.0730000000	107
33.1030000000	118
33.1330000000	111
33.1630000000	116
33.1930000000	120
33.2230000000	118
33.2530000000	132
33.2830000000	129
33.3130000000	147
33.3430000000	143
33.3730000000	155
33.4030000000	212
33.4330000000	296
33.4630000000	386
33.4930000000	617
33.5230000000	919
33.5530000000	1407
33.5830000000	2048
33.6130000000	2529
33.6430000000	2892
33.6730000000	2770
33.7030000000	2192
33.7330000000	1616
33.7630000000	1097
33.7930000000	674
33.8230000000	435
33.8530000000	322
33.8830000000	218
33.9130000000	145
33.9430000000	142
33.9730000000	143
34.0030000000	136
34.0330000000	113
34.0630000000	107
34.0930000000	126
34.1230000000	114
34.1530000000	122
34.1830000000	112
34.2130000000	103
34.2430000000	105
34.2730000000	97
34.3030000000	96
34.3330000000	89
34.3630000000	89
34.3930000000	106
34.4230000000	87
34.4530000000	100
34.4830000000	92
34.5130000000	99
34.5430000000	100
34.5730000000	91
34.6030000000	104
34.6330000000	100
34.6630000000	106
34.6930000000	102
34.7230000000	108
34.7530000000	94
34.7830000000	88
34.8130000000	109
34.8430000000	83
34.8730000000	98
34.9030000000	82
34.9330000000	78
34.9630000000	85
34.9930000000	91
35.0230000000	94
35.0530000000	89
35.0830000000	84
35.1130000000	95
35.1430000000	103
35.1730000000	84
35.2030000000	77
35.2330000000	100
35.2630000000	85
35.2930000000	93
35.3230000000	83
35.3530000000	89
35.3830000000	89
35.4130000000	102
35.4430000000	104
35.4730000000	88
35.5030000000	91
35.5330000000	82
35.5630000000	84
35.5930000000	90
35.6230000000	92
35.6530000000	87
35.6830000000	81
35.7130000000	89
35.7430000000	100
35.7730000000	104
35.8030000000	98
35.8330000000	97
35.8630000000	86
35.8930000000	90
35.9230000000	113
35.9530000000	118
35.9830000000	107
36.0130000000	153
36.0430000000	166
36.0730000000	200
36.1030000000	252
36.1330000000	312
36.1630000000	284
36.1930000000	265
36.2230000000	222
36.2530000000	168
36.2830000000	140
36.3130000000	118
36.3430000000	104
36.3730000000	87
36.4030000000	100
36.4330000000	104
36.4630000000	81
36.4930000000	95
36.5230000000	105
36.5530000000	86
36.5830000000	72
36.6130000000	84
36.6430000000	89
36.6730000000	100
36.7030000000	100
36.7330000000	92
36.7630000000	100
36.7930000000	89
36.8230000000	96
36.8530000000	89
36.8830000000	93
36.9130000000	86
36.9430000000	77
36.9730000000	82
37.0030000000	101
37.0330000000	87
37.0630000000	89
37.0930000000	96
37.1230000000	90
37.1530000000	75
37.1830000000	88
37.2130000000	85
37.2430000000	92
37.2730000000	91
37.3030000000	100
37.3330000000	81
37.3630000000	90
37.3930000000	99
37.4230000000	84
37.4530000000	77
37.4830000000	74
37.5130000000	92
37.5430000000	74
37.5730000000	110
37.6030000000	108
37.6330000000	84
37.6630000000	88
37.6930000000	100
37.7230000000	88
37.7530000000	95
37.7830000000	105
37.8130000000	113
37.8430000000	102
37.8730000000	113
37.9030000000	113
37.9330000000	124
37.9630000000	131
37.9930000000	155
38.0230000000	214
38.0530000000	279
38.0830000000	451
38.1130000000	632
38.1430000000	1007
38.1730000000	1617
38.2030000000	2152
38.2330000000	2720
38.2630000000	3025
38.2930000000	2955
38.3230000000	2485
38.3530000000	1817
38.3830000000	1211
38.4130000000	808
38.4430000000	516
38.4730000000	353
38.5030000000	229
38.5330000000	168
38.5630000000	154
38.5930000000	135
38.6230000000	123
38.6530000000	131
38.6830000000	119
38.7130000000	96
38.7430000000	99
38.7730000000	100
38.8030000000	107
38.8330000000	98
38.8630000000	82
38.8930000000	103
38.9230000000	102
38.9530000000	101
38.9830000000	109
39.0130000000	92
39.0430000000	96
39.0730000000	97
39.1030000000	108
39.1330000000	76
39.1630000000	95
39.1930000000	82
39.2230000000	67
39.2530000000	96
39.2830000000	81
39.3130000000	98
39.3430000000	78
39.3730000000	89
39.4030000000	75
39.4330000000	75
39.4630000000	80
39.4930000000	88
39.5230000000	78
39.5530000000	75
39.5830000000	77
39.6130000000	89
39.6430000000	83
39.6730000000	84
39.7030000000	87
39.7330000000	75
39.7630000000	86
39.7930000000	68
39.8230000000	90
39.8530000000	90
39.8830000000	82
39.9130000000	73
39.9430000000	81
39.9730000000	82
40.0030000000	76
40.0330000000	83
40.0630000000	79
40.0930000000	70
40.1230000000	71
40.1530000000	87
40.1830000000	62
40.2130000000	85
40.2430000000	85
40.2730000000	88
40.3030000000	74
40.3330000000	86
40.3630000000	78
40.3930000000	67
40.4230000000	75
40.4530000000	78
40.4830000000	72
40.5130000000	76
40.5430000000	96
40.5730000000	67
40.6030000000	81
40.6330000000	85
40.6630000000	83
40.6930000000	75
40.7230000000	82
40.7530000000	83
40.7830000000	79
40.8130000000	76
40.8430000000	77
40.8730000000	65
40.9030000000	81
40.9330000000	86
40.9630000000	63
40.9930000000	63
41.0230000000	71
41.0530000000	72
41.0830000000	73
41.1130000000	84
41.1430000000	78
41.1730000000	81
41.2030000000	89
41.2330000000	83
41.2630000000	80
41.2930000000	82
41.3230000000	97
41.3530000000	79
41.3830000000	86
41.4130000000	79
41.4430000000	77
41.4730000000	89
41.5030000000	88
41.5330000000	73
41.5630000000	90
41.5930000000	60
41.6230000000	63
41.6530000000	65
41.6830000000	73
41.7130000000	64
41.7430000000	71
41.7730000000	77
41.8030000000	85
41.8330000000	84
41.8630000000	82
41.8930000000	101
41.9230000000	106
41.9530000000	114
41.9830000000	104
42.0130000000	154
42.0430000000	230
42.0730000000	309
42.1030000000	329
42.1330000000	300
42.1630000000	283
42.1930000000	250
42.2230000000	211
42.2530000000	168
42.2830000000	129
42.3130000000	107
42.3430000000	98
42.3730000000	95
42.4030000000	90
42.4330000000	92
42.4630000000	86
42.4930000000	85
42.5230000000	90
42.5530000000	79
42.5830000000	72
42.6130000000	73
42.6430000000	81
42.6730000000	71
42.7030000000	66
42.7330000000	73
42.7630000000	65
42.7930000000	66
42.8230000000	67
42.8530000000	69
42.8830000000	76
42.9130000000	64
42.9430000000	58
42.9730000000	72
43.0030000000	69
43.0330000000	88
43.0630000000	62
43.0930000000	74
43.1230000000	83
43.1530000000	62
43.1830000000	59
43.2130000000	66
43.2430000000	78
43.2730000000	78
43.3030000000	81
43.3330000000	76
43.3630000000	60
43.3930000000	59
43.4230000000	66
43.4530000000	55
43.4830000000	71
43.5130000000	64
43.5430000000	74
43.5730000000	74
43.6030000000	68
43.6330000000	67
43.6630000000	68
43.6930000000	74
43.7230000000	73
43.7530000000	72
43.7830000000	78
43.8130000000	80
43.8430000000	117
43.8730000000	111
43.9030000000	176
43.9330000000	208
43.9630000000	235
43.9930000000	246
44.0230000000	246
44.0530000000	203
44.0830000000	171
44.1130000000	174
44.1430000000	119
44.1730000000	111
44.2030000000	90
44.2330000000	73
44.2630000000	102
44.2930000000	68
44.3230000000	75
44.3530000000	66
44.3830000000	76
44.4130000000	75
44.4430000000	59
44.4730000000	71
44.5030000000	61
44.5330000000	85
44.5630000000	42
44.5930000000	71
44.6230000000	82
44.6530000000	71
44.6830000000	77
44.7130000000	59
44.7430000000	79
44.7730000000	78
44.8030000000	56
44.8330000000	62
44.8630000000	58
44.8930000000	69
44.9230000000	79
44.9530000000	70
44.9830000000	68
45.0130000000	64
45.0430000000	70
45.0730000000	76
45.1030000000	74
45.1330000000	68
45.1630000000	67
45.1930000000	57
45.2230000000	56
45.2530000000	70
45.2830000000	64
45.3130000000	64
45.3430000000	68
45.3730000000	75
45.4030000000	69
45.4330000000	58
45.4630000000	67
45.4930000000	70
45.5230000000	75
45.5530000000	73
45.5830000000	59
45.6130000000	61
45.6430000000	76
45.6730000000	75
45.7030000000	66
45.7330000000	71
45.7630000000	74
45.7930000000	62
45.8230000000	65
45.8530000000	69
45.8830000000	75
45.9130000000	84
45.9430000000	58
45.9730000000	68
46.0030000000	69
46.0330000000	64
46.0630000000	77
46.0930000000	74
46.1230000000	73
46.1530000000	74
46.1830000000	87
46.2130000000	77
46.2430000000	73
46.2730000000	81
46.3030000000	114
46.3330000000	153
46.3630000000	194
46.3930000000	306
46.4230000000	422
46.4530000000	589
46.4830000000	797
46.5130000000	926
46.5430000000	893
46.5730000000	922
46.6030000000	792
46.6330000000	690
46.6630000000	580
46.6930000000	464
46.7230000000	413
46.7530000000	439
46.7830000000	510
46.8130000000	628
46.8430000000	692
46.8730000000	665
46.9030000000	577
46.9330000000	525
46.9630000000	422
46.9930000000	310
47.0230000000	207
47.0530000000	173
47.0830000000	113
47.1130000000	92
47.1430000000	84
47.1730000000	79
47.2030000000	81
47.2330000000	58
47.2630000000	79
47.2930000000	69
47.3230000000	76
47.3530000000	71
47.3830000000	62
47.4130000000	56
47.4430000000	64
47.4730000000	61
47.5030000000	67
47.5330000000	52
47.5630000000	62
47.5930000000	63
47.6230000000	65
47.6530000000	77
47.6830000000	57
47.7130000000	58
47.7430000000	60
47.7730000000	56
47.8030000000	59
47.8330000000	55
47.8630000000	69
47.8930000000	68
47.9230000000	60
47.9530000000	47
47.9830000000	64
48.0130000000	59
48.0430000000	52
48.0730000000	63
48.1030000000	64
48.1330000000	53
48.1630000000	54
48.1930000000	62
48.2230000000	70
48.2530000000	51
48.2830000000	60
48.3130000000	55
48.3430000000	47
48.3730000000	42
48.4030000000	61
48.4330000000	54
48.4630000000	54
48.4930000000	54
48.5230000000	58
48.5530000000	69
48.5830000000	58
48.6130000000	58
48.6430000000	55
48.6730000000	58
48.7030000000	62
48.7330000000	58
48.7630000000	55
48.7930000000	56
48.8230000000	58
48.8530000000	56
48.8830000000	57
48.9130000000	58
48.9430000000	62
48.9730000000	66
49.0030000000	59
49.0330000000	50
49.0630000000	47
49.0930000000	44
49.1230000000	48
49.1530000000	57
49.1830000000	64
49.2130000000	51
49.2430000000	34
49.2730000000	51
49.3030000000	59
49.3330000000	45
49.3630000000	57
49.3930000000	43
49.4230000000	40
49.4530000000	52
49.4830000000	49
49.5130000000	54
49.5430000000	56
49.5730000000	45
49.6030000000	56
49.6330000000	53
49.6630000000	59
49.6930000000	63
49.7230000000	60
49.7530000000	49
49.7830000000	60
49.8130000000	61
49.8430000000	50
49.8730000000	52
49.9030000000	47
49.9330000000	59
49.9630000000	45
49.9930000000	60
50.0230000000	68
50.0530000000	65
50.0830000000	49
50.1130000000	56
50.1430000000	62
50.1730000000	48
50.2030000000	53
50.2330000000	65
50.2630000000	55
50.2930000000	45
50.3230000000	52
50.3530000000	59
50.3830000000	69
50.4130000000	72
50.4430000000	79
50.4730000000	78
50.5030000000	90
50.5330000000	117
50.5630000000	111
50.5930000000	109
50.6230000000	93
50.6530000000	79
50.6830000000	57
50.7130000000	62
50.7430000000	62
50.7730000000	50
50.8030000000	59
50.8330000000	60
50.8630000000	49
50.8930000000	56
50.9230000000	40
50.9530000000	40
50.9830000000	55
51.0130000000	50
51.0430000000	35
51.0730000000	39
51.1030000000	58
51.1330000000	56
51.1630000000	45
51.1930000000	37
51.2230000000	42
51.2530000000	49
51.2830000000	43
51.3130000000	45
51.3430000000	40
51.3730000000	49
51.4030000000	52
51.4330000000	50
51.4630000000	44
51.4930000000	46
51.5230000000	51
51.5530000000	40
51.5830000000	47
51.6130000000	44
51.6430000000	43
51.6730000000	39
51.7030000000	41
51.7330000000	43
51.7630000000	43
51.7930000000	57
51.8230000000	45
51.8530000000	34
51.8830000000	48
51.9130000000	51
51.9430000000	48
51.9730000000	44
52.0030000000	31
52.0330000000	37
52.0630000000	42
52.0930000000	50
52.1230000000	58
52.1530000000	42
52.1830000000	52
52.2130000000	46
52.2430000000	47
52.2730000000	45
52.3030000000	43
52.3330000000	46
52.3630000000	43
52.3930000000	47
52.4230000000	50
52.4530000000	49
52.4830000000	47
52.5130000000	48
52.5430000000	42
52.5730000000	53
52.6030000000	46
52.6330000000	38
52.6630000000	37
52.6930000000	47
52.7230000000	49
52.7530000000	62
52.7830000000	50
52.8130000000	49
52.8430000000	58
52.8730000000	40
52.9030000000	38
52.9330000000	52
52.9630000000	49
52.9930000000	49
53.0230000000	61
53.0530000000	54
53.0830000000	49
53.1130000000	59
53.1430000000	50
53.1730000000	29
53.2030000000	52
53.2330000000	39
53.2630000000	58
53.2930000000	46
53.3230000000	45
53.3530000000	40
53.3830000000	58
53.4130000000	56
53.4430000000	61
53.4730000000	54
53.5030000000	64
53.5330000000	68
53.5630000000	66
53.5930000000	82
53.6230000000	94
53.6530000000	92
53.6830000000	115
53.7130000000	122
53.7430000000	90
53.7730000000	84
53.8030000000	84
53.8330000000	74
53.8630000000	67
53.8930000000	56
53.9230000000	52
53.9530000000	46
53.9830000000	50
54.0130000000	53
54.0430000000	45
54.0730000000	63
54.1030000000	55
54.1330000000	47
54.1630000000	55
54.1930000000	51
54.2230000000	40
54.2530000000	49
54.2830000000	40
54.3130000000	53
54.3430000000	50
54.3730000000	39
54.4030000000	43
54.4330000000	52
54.4630000000	43
54.4930000000	42
54.5230000000	56
54.5530000000	53
54.5830000000	49
54.6130000000	39
54.6430000000	44
54.6730000000	52
54.7030000000	38
54.7330000000	47
54.7630000000	57
54.7930000000	43
54.8230000000	53
54.8530000000	55
54.8830000000	41
54.9130000000	50
54.9430000000	40
54.9730000000	37
55.0030000000	46
55.0330000000	52
55.0630000000	33
55.0930000000	41
55.1230000000	50
55.1530000000	38
55.1830000000	45
55.2130000000	42
55.2430000000	44
55.2730000000	35
55.3030000000	44
55.3330000000	53
55.3630000000	54
55.3930000000	45
55.4230000000	50
55.4530000000	54
55.4830000000	40
55.5130000000	51
55.5430000000	45
55.5730000000	47
55.6030000000	47
55.6330000000	54
55.6630000000	40
55.6930000000	48
55.7230000000	55
55.7530000000	46
55.7830000000	55
55.8130000000	47
55.8430000000	47
55.8730000000	43
55.9030000000	36
55.9330000000	52
55.9630000000	44
55.9930000000	52
56.0230000000	44
56.0530000000	42
56.0830000000	38
56.1130000000	51
56.1430000000	39
56.1730000000	42
56.2030000000	32
56.2330000000	42
56.2630000000	56
56.2930000000	39
56.3230000000	42
56.3530000000	43
56.3830000000	48
56.4130000000	37
56.4430000000	47
56.4730000000	52
56.5030000000	44
56.5330000000	45
56.5630000000	47
56.5930000000	39
56.6230000000	35
56.6530000000	34
56.6830000000	50
56.7130000000	35
56.7430000000	36
56.7730000000	39
56.8030000000	40
56.8330000000	33
56.8630000000	42
56.8930000000	43
56.9230000000	50
56.9530000000	41
56.9830000000	39
57.0130000000	43
57.0430000000	54
57.0730000000	52
57.1030000000	36
57.1330000000	52
57.1630000000	54
57.1930000000	40
57.2230000000	31
57.2530000000	38
57.2830000000	45
57.3130000000	46
57.3430000000	32
57.3730000000	53
57.4030000000	50
57.4330000000	45
57.4630000000	43
57.4930000000	49
57.5230000000	36
57.5530000000	40
57.5830000000	46
57.6130000000	40
57.6430000000	46
57.6730000000	41
57.7030000000	41
57.7330000000	46
57.7630000000	43
57.7930000000	42
57.8230000000	38
57.8530000000	39
57.8830000000	48
57.9130000000	42
57.9430000000	51
57.9730000000	37
58.0030000000	50
58.0330000000	54
58.0630000000	53
58.0930000000	52
58.1230000000	63
58.1530000000	88
58.1830000000	98
58.2130000000	102
58.2430000000	95
58.2730000000	101
58.3030000000	76
58.3330000000	60
58.3630000000	69
58.3930000000	66
58.4230000000	64
58.4530000000	49
58.4830000000	49
58.5130000000	55
58.5430000000	46
58.5730000000	37
58.6030000000	39
58.6330000000	46
58.6630000000	33
58.6930000000	40
58.7230000000	41
58.7530000000	43
58.7830000000	36
58.8130000000	35
58.8430000000	37
58.8730000000	32
58.9030000000	42
58.9330000000	40
58.9630000000	49
58.9930000000	53
59.0230000000	45
59.0530000000	49
59.0830000000	72
59.1130000000	78
59.1430000000	72
59.1730000000	68
59.2030000000	64
59.2330000000	58
59.2630000000	58
59.2930000000	60
59.3230000000	59
59.3530000000	48
59.3830000000	38
59.4130000000	49
59.4430000000	57
59.4730000000	48
59.5030000000	42
59.5330000000	37
59.5630000000	30
59.5930000000	49
59.6230000000	59
59.6530000000	49
59.6830000000	39
59.7130000000	47
59.7430000000	51
59.7730000000	51
59.8030000000	61
59.8330000000	85
59.8630000000	106
59.8930000000	136
59.9230000000	121
59.9530000000	98
59.9830000000	113
60.0130000000	118
60.0430000000	89
60.0730000000	102
60.1030000000	82
60.1330000000	67
60.1630000000	52
60.1930000000	61
60.2230000000	46
60.2530000000	42
60.2830000000	49
60.3130000000	36
60.3430000000	46
60.3730000000	53
60.4030000000	38
60.4330000000	46
60.4630000000	48
60.4930000000	58
60.5230000000	48
60.5530000000	56
60.5830000000	49
60.6130000000	52
60.6430000000	46
60.6730000000	46
60.7030000000	59
60.7330000000	42
60.7630000000	41
60.7930000000	38
60.8230000000	47
60.8530000000	45
60.8830000000	31
60.9130000000	41
60.9430000000	42
60.9730000000	48
61.0030000000	28
61.0330000000	43
61.0630000000	44
61.0930000000	44
61.1230000000	38
61.1530000000	47
61.1830000000	38
61.2130000000	42
61.2430000000	42
61.2730000000	39
61.3030000000	38
61.3330000000	36
61.3630000000	35
61.3930000000	39
61.4230000000	47
61.4530000000	45
61.4830000000	40
61.5130000000	31
61.5430000000	42
61.5730000000	43
61.6030000000	35
61.6330000000	36
61.6630000000	39
61.6930000000	38
61.7230000000	41
61.7530000000	39
61.7830000000	28
61.8130000000	48
61.8430000000	34
61.8730000000	53
61.9030000000	46
61.9330000000	65
61.9630000000	48
61.9930000000	67
62.0230000000	68
62.0530000000	91
62.0830000000	86
62.1130000000	61
62.1430000000	86
62.1730000000	74
62.2030000000	62
62.2330000000	66
62.2630000000	67
62.2930000000	54
62.3230000000	48
62.3530000000	47
62.3830000000	38
62.4130000000	40
62.4430000000	41
62.4730000000	44
62.5030000000	47
62.5330000000	41
62.5630000000	51
62.5930000000	43
62.6230000000	34
62.6530000000	40
62.6830000000	48
62.7130000000	43
62.7430000000	44
62.7730000000	43
62.8030000000	45
62.8330000000	36
62.8630000000	48
62.8930000000	37
62.9230000000	36
62.9530000000	37
62.9830000000	38
63.0130000000	34
63.0430000000	35
63.0730000000	44
63.1030000000	51
63.1330000000	52
63.1630000000	43
63.1930000000	46
63.2230000000	50
63.2530000000	46
63.2830000000	51
63.3130000000	51
63.3430000000	50
63.3730000000	45
63.4030000000	39
63.4330000000	50
63.4630000000	34
63.4930000000	43
63.5230000000	38
63.5530000000	43
63.5830000000	42
63.6130000000	45
63.6430000000	52
63.6730000000	44
63.7030000000	41
63.7330000000	27
63.7630000000	38
63.7930000000	41
63.8230000000	36
63.8530000000	32
63.8830000000	42
63.9130000000	27
63.9430000000	33
63.9730000000	48
64.0030000000	43
64.0330000000	49
64.0630000000	53
64.0930000000	37
64.1230000000	37
64.1530000000	45
64.1830000000	36
64.2130000000	33
64.2430000000	38
64.2730000000	31
64.3030000000	34
64.3330000000	31
64.3630000000	40
64.3930000000	36
64.4230000000	38
64.4530000000	35
64.4830000000	28
64.5130000000	28
64.5430000000	38
64.5730000000	40
64.6030000000	39
64.6330000000	30
64.6630000000	36
64.6930000000	28
64.7230000000	37
64.7530000000	37
64.7830000000	38
64.8130000000	29
64.8430000000	45
64.8730000000	31
64.9030000000	37
64.9330000000	28
64.9630000000	26
64.9930000000	38
65.0230000000	39
65.0530000000	38
65.0830000000	34
65.1130000000	30
65.1430000000	39
65.1730000000	47
65.2030000000	48
65.2330000000	42
65.2630000000	49
65.2930000000	37
65.3230000000	37
65.3530000000	43
65.3830000000	32
65.4130000000	34
65.4430000000	38
65.4730000000	47
65.5030000000	42
65.5330000000	45
65.5630000000	53
65.5930000000	31
65.6230000000	33
65.6530000000	33
65.6830000000	34
65.7130000000	37
65.7430000000	38
65.7730000000	32
65.8030000000	44
65.8330000000	49
65.8630000000	35
65.8930000000	42
65.9230000000	43
65.9530000000	47
65.9830000000	38
66.0130000000	51
66.0430000000	59
66.0730000000	63
66.1030000000	85
66.1330000000	90
66.1630000000	117
66.1930000000	117
66.2230000000	120
66.2530000000	115
66.2830000000	123
66.3130000000	105
66.3430000000	86
66.3730000000	88
66.4030000000	81
66.4330000000	75
66.4630000000	71
66.4930000000	62
66.5230000000	60
66.5530000000	57
66.5830000000	47
66.6130000000	37
66.6430000000	34
66.6730000000	37
66.7030000000	35
66.7330000000	52
66.7630000000	48
66.7930000000	44
66.8230000000	46
66.8530000000	31
66.8830000000	45
66.9130000000	33
66.9430000000	47
66.9730000000	37
67.0030000000	37
67.0330000000	46
67.0630000000	44
67.0930000000	50
67.1230000000	43
67.1530000000	35
67.1830000000	36
67.2130000000	42
67.2430000000	47
67.2730000000	44
67.3030000000	47
67.3330000000	39
67.3630000000	32
67.3930000000	44
67.4230000000	48
67.4530000000	42
67.4830000000	37
67.5130000000	45
67.5430000000	38
67.5730000000	32
67.6030000000	45
67.6330000000	29
67.6630000000	37
67.6930000000	45
67.7230000000	31
67.7530000000	39
67.7830000000	48
67.8130000000	45
67.8430000000	42
67.8730000000	38
67.9030000000	33
67.9330000000	41
67.9630000000	42
67.9930000000	33
68.0230000000	46
68.0530000000	38
68.0830000000	28
68.1130000000	34
68.1430000000	42
68.1730000000	26
68.2030000000	41
68.2330000000	42
68.2630000000	35
68.2930000000	47
68.3230000000	39
68.3530000000	40
68.3830000000	44
68.4130000000	31
68.4430000000	40
68.4730000000	41
68.5030000000	40
68.5330000000	43
68.5630000000	33
68.5930000000	37
68.6230000000	52
68.6530000000	38
68.6830000000	57
68.7130000000	39
68.7430000000	37
68.7730000000	74
68.8030000000	61
68.8330000000	66
68.8630000000	85
68.8930000000	87
68.9230000000	81
68.9530000000	62
68.9830000000	79
69.0130000000	69
69.0430000000	74
69.0730000000	77
69.1030000000	65
69.1330000000	72
69.1630000000	89
69.1930000000	85
69.2230000000	93
69.2530000000	61
69.2830000000	66
69.3130000000	78
69.3430000000	58
69.3730000000	68
69.4030000000	55
69.4330000000	48
69.4630000000	45
69.4930000000	44
69.5230000000	40
69.5530000000	47
69.5830000000	39
69.6130000000	39
69.6430000000	39
69.6730000000	33
69.7030000000	26
69.7330000000	30
69.7630000000	35
69.7930000000	31
69.8230000000	35
69.8530000000	42
69.8830000000	32
69.9130000000	44
69.9430000000	45
69.9730000000	44
70.0030000000	38
70.0330000000	36
70.0630000000	43
70.0930000000	52
70.1230000000	41
70.1530000000	39
70.1830000000	47
70.2130000000	34
70.2430000000	41
70.2730000000	30
70.3030000000	48
70.3330000000	36
70.3630000000	29
70.3930000000	44
70.4230000000	30
70.4530000000	33
70.4830000000	45
70.5130000000	45
70.5430000000	33
70.5730000000	34
70.6030000000	36
70.6330000000	37
70.6630000000	36
70.6930000000	34
70.7230000000	37
70.7530000000	49
70.7830000000	38
70.8130000000	43
70.8430000000	41
70.8730000000	35
70.9030000000	36
70.9330000000	35
70.9630000000	44
70.9930000000	33
71.0230000000	39
71.0530000000	50
71.0830000000	39
71.1130000000	33
71.1430000000	38
71.1730000000	45
71.2030000000	43
71.2330000000	38
71.2630000000	48
71.2930000000	31
71.3230000000	42
71.3530000000	34
71.3830000000	39
71.4130000000	42
71.4430000000	33
71.4730000000	41
71.5030000000	36
71.5330000000	40
71.5630000000	34
71.5930000000	41
71.6230000000	44
71.6530000000	54
71.6830000000	49
71.7130000000	37
71.7430000000	37
71.7730000000	54
71.8030000000	37
71.8330000000	37
71.8630000000	47
71.8930000000	34
71.9230000000	42
71.9530000000	43
71.9830000000	38
72.0130000000	31
72.0430000000	51
72.0730000000	36
72.1030000000	60
72.1330000000	71
72.1630000000	53
72.1930000000	61
72.2230000000	71
72.2530000000	77
72.2830000000	100
72.3130000000	91
72.3430000000	83
72.3730000000	54
72.4030000000	77
72.4330000000	67
72.4630000000	66
72.4930000000	62
72.5230000000	50
72.5530000000	62
72.5830000000	47
72.6130000000	41
72.6430000000	38
72.6730000000	35
72.7030000000	43
72.7330000000	51
72.7630000000	42
72.7930000000	34
72.8230000000	42
72.8530000000	41
72.8830000000	44
72.9130000000	39
72.9430000000	46
72.9730000000	36
73.0030000000	43
73.0330000000	29
73.0630000000	35
73.0930000000	39
73.1230000000	56
73.1530000000	38
73.1830000000	43
73.2130000000	39
73.2430000000	57
73.2730000000	60
73.3030000000	77
73.3330000000	82
73.3630000000	96
73.3930000000	82
73.4230000000	75
73.4530000000	87
73.4830000000	70
73.5130000000	60
73.5430000000	71
73.5730000000	63
73.6030000000	46
73.6330000000	44
73.6630000000	52
73.6930000000	47
73.7230000000	36
73.7530000000	42
73.7830000000	43
73.8130000000	36
73.8430000000	41
73.8730000000	43
73.9030000000	47
73.9330000000	46
73.9630000000	37
73.9930000000	47
74.0230000000	38
74.0530000000	39
74.0830000000	42
74.1130000000	50
74.1430000000	39
74.1730000000	43
74.2030000000	41
74.2330000000	41
74.2630000000	51
74.2930000000	40
74.3230000000	44
74.3530000000	39
74.3830000000	32
74.4130000000	37
74.4430000000	29
74.4730000000	38
74.5030000000	44
74.5330000000	53
74.5630000000	38
74.5930000000	44
74.6230000000	43
74.6530000000	34
74.6830000000	41
74.7130000000	46
74.7430000000	41
74.7730000000	38
74.8030000000	37
74.8330000000	49
74.8630000000	48
74.8930000000	65
74.9230000000	68
74.9530000000	77
74.9830000000	102
75.0130000000	87
75.0430000000	113
75.0730000000	111
75.1030000000	87
75.1330000000	81
75.1630000000	103
75.1930000000	75
75.2230000000	90
75.2530000000	100
75.2830000000	102
75.3130000000	94
75.3430000000	80
75.3730000000	71
75.4030000000	67
75.4330000000	61
75.4630000000	59
75.4930000000	61
75.5230000000	62
75.5530000000	66
75.5830000000	61
75.6130000000	54
75.6430000000	35
75.6730000000	48
75.7030000000	44
75.7330000000	42
75.7630000000	50
75.7930000000	43
75.8230000000	36
75.8530000000	35
75.8830000000	32
75.9130000000	38
75.9430000000	28
75.9730000000	34
76.0030000000	38
76.0330000000	28
76.0630000000	24
76.0930000000	39
76.1230000000	50
76.1530000000	40
76.1830000000	43
76.2130000000	41
76.2430000000	45
76.2730000000	40
76.3030000000	35
76.3330000000	44
76.3630000000	41
76.3930000000	44
76.4230000000	43
76.4530000000	40
76.4830000000	39
76.5130000000	45
76.5430000000	37
76.5730000000	45
76.6030000000	51
76.6330000000	43
76.6630000000	43
76.6930000000	44
76.7230000000	52
76.7530000000	55
76.7830000000	65
76.8130000000	71
76.8430000000	62
76.8730000000	55
76.9030000000	53
76.9330000000	54
76.9630000000	51
76.9930000000	43
77.0230000000	50
77.0530000000	45
77.0830000000	49
77.1130000000	54
77.1430000000	40
77.1730000000	36
77.2030000000	38
77.2330000000	44
77.2630000000	40
77.2930000000	42
77.3230000000	33
77.3530000000	48
77.3830000000	33
77.4130000000	42
77.4430000000	42
77.4730000000	49
77.5030000000	60
77.5330000000	66
77.5630000000	52
77.5930000000	45
77.6230000000	52
77.6530000000	60
77.6830000000	51
77.7130000000	57
77.7430000000	45
77.7730000000	38
77.8030000000	39
77.8330000000	32
77.8630000000	42
77.8930000000	39
77.9230000000	36
77.9530000000	43
77.9830000000	44
78.0130000000	37
78.0430000000	34
78.0730000000	48
78.1030000000	46
78.1330000000	33
78.1630000000	53
78.1930000000	38
78.2230000000	30
78.2530000000	35
78.2830000000	44
78.3130000000	36
78.3430000000	47
78.3730000000	37
78.4030000000	32
78.4330000000	43
78.4630000000	55
78.4930000000	34
78.5230000000	32
78.5530000000	40
78.5830000000	36
78.6130000000	42
78.6430000000	39
78.6730000000	36
78.7030000000	43
78.7330000000	50
78.7630000000	38
78.7930000000	32
78.8230000000	41
78.8530000000	35
78.8830000000	37
78.9130000000	39
78.9430000000	37
78.9730000000	34
79.0030000000	45
79.0330000000	39
79.0630000000	30
79.0930000000	42
79.1230000000	44
79.1530000000	34
79.1830000000	35
79.2130000000	31
79.2430000000	31
79.2730000000	34
79.3030000000	35
79.3330000000	35
79.3630000000	31
79.3930000000	40
79.4230000000	40
79.4530000000	30
79.4830000000	38
79.5130000000	36
79.5430000000	34
79.5730000000	43
79.6030000000	43
79.6330000000	40
79.6630000000	35
79.6930000000	34
79.7230000000	43
79.7530000000	36
79.7830000000	37
79.8130000000	35
79.8430000000	43
79.8730000000	41
79.9030000000	30
79.9330000000	35
79.9630000000	33
79.9930000000	36
80.0230000000	39
80.0530000000	38
80.0830000000	44
80.1130000000	34
80.1430000000	49
80.1730000000	45
80.2030000000	34
80.2330000000	29
80.2630000000	41
80.2930000000	36
80.3230000000	32
80.3530000000	33
80.3830000000	31
80.4130000000	39
80.4430000000	47
80.4730000000	42
80.5030000000	36
80.5330000000	41
80.5630000000	36
80.5930000000	47
80.6230000000	39
80.6530000000	43
80.6830000000	43
80.7130000000	45
80.7430000000	39
80.7730000000	49
80.8030000000	42
80.8330000000	41
80.8630000000	42
80.8930000000	39
80.9230000000	45
80.9530000000	44
80.9830000000	42
81.0130000000	40
81.0430000000	43
81.0730000000	44
81.1030000000	37
81.1330000000	39
81.1630000000	38
81.1930000000	42
81.2230000000	20
81.2530000000	32
81.2830000000	43
81.3130000000	22
81.3430000000	45
81.3730000000	49
81.4030000000	42
81.4330000000	55
81.4630000000	47
81.4930000000	66
81.5230000000	58
81.5530000000	74
81.5830000000	72
81.6130000000	62
81.6430000000	71
81.6730000000	64
81.7030000000	54
81.7330000000	53
81.7630000000	60
81.7930000000	63
81.8230000000	72
81.8530000000	65
81.8830000000	69
81.9130000000	63
81.9430000000	55
81.9730000000	61
82.0030000000	51
82.0330000000	51
82.0630000000	52
82.0930000000	42
82.1230000000	57
82.1530000000	45
82.1830000000	47
82.2130000000	57
82.2430000000	28
82.2730000000	39
82.3030000000	45
82.3330000000	41
82.3630000000	37
82.3930000000	39
82.4230000000	36
82.4530000000	39
82.4830000000	31
82.5130000000	38
82.5430000000	43
82.5730000000	37
82.6030000000	42
82.6330000000	44
82.6630000000	40
82.6930000000	35
82.7230000000	37
82.7530000000	39
82.7830000000	33
82.8130000000	26
82.8430000000	27
82.8730000000	29
82.9030000000	34
82.9330000000	37
82.9630000000	27
82.9930000000	46
83.0230000000	40
83.0530000000	35
83.0830000000	29
83.1130000000	31
83.1430000000	38
83.1730000000	39
83.2030000000	37
83.2330000000	40
83.2630000000	44
83.2930000000	45
83.3230000000	43
83.3530000000	47
83.3830000000	41
83.4130000000	50
83.4430000000	38
83.4730000000	42
83.5030000000	44
83.5330000000	46
83.5630000000	55
83.5930000000	57
83.6230000000	61
83.6530000000	66
83.6830000000	67
83.7130000000	56
83.7430000000	59
83.7730000000	66
83.8030000000	49
83.8330000000	50
83.8630000000	61
83.8930000000	51
83.9230000000	54
83.9530000000	45
83.9830000000	31
84.0130000000	28
84.0430000000	30
84.0730000000	42
84.1030000000	42
84.1330000000	44
84.1630000000	45
84.1930000000	47
84.2230000000	29
84.2530000000	37
84.2830000000	23
84.3130000000	39
84.3430000000	41
84.3730000000	34
84.4030000000	40
84.4330000000	32
84.4630000000	40
84.4930000000	41
84.5230000000	40
84.5530000000	43
84.5830000000	43
84.6130000000	48
84.6430000000	48
84.6730000000	32
84.7030000000	42
84.7330000000	36
84.7630000000	55
84.7930000000	52
84.8230000000	70
84.8530000000	88
84.8830000000	88
84.9130000000	85
84.9430000000	62
84.9730000000	49
85.0030000000	50
85.0330000000	60
85.0630000000	53
85.0930000000	69
85.1230000000	61
85.1530000000	54
85.1830000000	41
85.2130000000	48
85.2430000000	30
85.2730000000	29
85.3030000000	31
85.3330000000	40
85.3630000000	36
85.3930000000	39
85.4230000000	30
85.4530000000	41
85.4830000000	29
85.5130000000	39
85.5430000000	49
85.5730000000	44
85.6030000000	54
85.6330000000	71
85.6630000000	53
85.6930000000	55
85.7230000000	48
85.7530000000	36
85.7830000000	38
85.8130000000	30
85.8430000000	38
85.8730000000	40
85.9030000000	31
85.9330000000	39
85.9630000000	40
85.9930000000	49
86.0230000000	32
86.0530000000	39
86.0830000000	32
86.1130000000	30
86.1430000000	31
86.1730000000	28
86.2030000000	32
86.2330000000	35
86.2630000000	34
86.2930000000	33
86.3230000000	39
86.3530000000	33
86.3830000000	37
86.4130000000	34
86.4430000000	34
86.4730000000	40
86.5030000000	34
86.5330000000	35
86.5630000000	34
86.5930000000	32
86.6230000000	30
86.6530000000	25
86.6830000000	32
86.7130000000	39
86.7430000000	31
86.7730000000	38
86.8030000000	37
86.8330000000	35
86.8630000000	31
86.8930000000	36
86.9230000000	43
86.9530000000	38
86.9830000000	34
87.0130000000	30
87.0430000000	28
87.0730000000	35
87.1030000000	38
87.1330000000	35
87.1630000000	29
87.1930000000	37
87.2230000000	45
87.2530000000	32
87.2830000000	32
87.3130000000	39
87.3430000000	29
87.3730000000	38
87.4030000000	33
87.4330000000	35
87.4630000000	33
87.4930000000	29
87.5230000000	47
87.5530000000	41
87.5830000000	35
87.6130000000	41
87.6430000000	42
87.6730000000	40
87.7030000000	42
87.7330000000	34
87.7630000000	30
87.7930000000	48
87.8230000000	45
87.8530000000	40
87.8830000000	42
87.9130000000	33
87.9430000000	37
87.9730000000	26
88.0030000000	33
88.0330000000	43
88.0630000000	36
88.0930000000	31
88.1230000000	39
88.1530000000	44
88.1830000000	26
88.2130000000	44
88.2430000000	31
88.2730000000	37
88.3030000000	37
88.3330000000	44
88.3630000000	45
88.3930000000	32
88.4230000000	32
88.4530000000	41
88.4830000000	39
88.5130000000	33
88.5430000000	30
88.5730000000	51
88.6030000000	39
88.6330000000	27
88.6630000000	37
88.6930000000	50
88.7230000000	38
88.7530000000	36
88.7830000000	36
88.8130000000	37
88.8430000000	37
88.8730000000	38
88.9030000000	43
88.9330000000	45
88.9630000000	32
88.9930000000	40
89.0230000000	43
89.0530000000	32
89.0830000000	42
89.1130000000	41
89.1430000000	43
89.1730000000	37
89.2030000000	45
89.2330000000	44
89.2630000000	49
89.2930000000	44
89.3230000000	39
89.3530000000	43
89.3830000000	52
89.4130000000	46
89.4430000000	34
89.4730000000	44
89.5030000000	52
89.5330000000	35
89.5630000000	27
89.5930000000	36
89.6230000000	39
89.6530000000	45
89.6830000000	41
89.7130000000	31
89.7430000000	40
89.7730000000	44
89.8030000000	44
89.8330000000	51
89.8630000000	53
89.8930000000	54
89.9230000000	53
89.9530000000	41
89.9830000000	43
90.0130000000	43
90.0430000000	50
90.0730000000	42
90.1030000000	58
90.1330000000	41
90.1630000000	48
90.1930000000	40
90.2230000000	44
90.2530000000	46
90.2830000000	34
90.3130000000	28
90.3430000000	45
90.3730000000	37
90.4030000000	39
90.4330000000	42
90.4630000000	29
90.4930000000	34
90.5230000000	28
90.5530000000	38
90.5830000000	45
90.6130000000	39
90.6430000000	39
90.6730000000	36
90.7030000000	28
90.7330000000	35
90.7630000000	33
90.7930000000	38
90.8230000000	25
90.8530000000	41
90.8830000000	39
90.9130000000	40
90.9430000000	37
90.9730000000	51
91.0030000000	35
91.0330000000	37
91.0630000000	27
91.0930000000	34
91.1230000000	31
91.1530000000	27
91.1830000000	33
91.2130000000	28
91.2430000000	30
91.2730000000	43
91.3030000000	35
91.3330000000	26
91.3630000000	26
91.3930000000	41
91.4230000000	44
91.4530000000	35
91.4830000000	44
91.5130000000	38
91.5430000000	31
91.5730000000	33
91.6030000000	38
91.6330000000	43
91.6630000000	38
91.6930000000	31
91.7230000000	32
91.7530000000	26
91.7830000000	38
91.8130000000	50
91.8430000000	40
91.8730000000	39
91.9030000000	41
91.9330000000	39
91.9630000000	46
91.9930000000	38
92.0230000000	46
92.0530000000	38
92.0830000000	36
92.1130000000	35
92.1430000000	24
92.1730000000	32
92.2030000000	28
92.2330000000	27
92.2630000000	35
92.2930000000	47
92.3230000000	39
92.3530000000	38
92.3830000000	27
92.4130000000	40
92.4430000000	37
92.4730000000	38
92.5030000000	26
92.5330000000	29
92.5630000000	43
92.5930000000	42
92.6230000000	35
92.6530000000	43
92.6830000000	29
92.7130000000	37
92.7430000000	48
92.7730000000	42
92.8030000000	32
92.8330000000	40
92.8630000000	46
92.8930000000	36
92.9230000000	37
92.9530000000	39
92.9830000000	47
93.0130000000	37
93.0430000000	40
93.0730000000	50
93.1030000000	35
93.1330000000	32
93.1630000000	42
93.1930000000	44
93.2230000000	39
93.2530000000	32
93.2830000000	30
93.3130000000	40
93.3430000000	46
93.3730000000	34
93.4030000000	38
93.4330000000	44
93.4630000000	40
93.4930000000	42
93.5230000000	28
93.5530000000	34
93.5830000000	41
93.6130000000	30
93.6430000000	34
93.6730000000	36
93.7030000000	46
93.7330000000	41
93.7630000000	36
93.7930000000	40
93.8230000000	45
93.8530000000	29
93.8830000000	36
93.9130000000	47
93.9430000000	40
93.9730000000	37
94.0030000000	26
94.0330000000	51
94.0630000000	49
94.0930000000	47
94.1230000000	39
94.1530000000	42
94.1830000000	31
94.2130000000	38
94.2430000000	48
94.2730000000	40
94.3030000000	52
94.3330000000	54
94.3630000000	38
94.3930000000	48
94.4230000000	41
94.4530000000	58
94.4830000000	56
94.5130000000	50
94.5430000000	65
94.5730000000	64
94.6030000000	56
94.6330000000	51
94.6630000000	46
94.6930000000	44
94.7230000000	45
94.7530000000	50
94.7830000000	46
94.8130000000	46
94.8430000000	41
94.8730000000	47
94.9030000000	49
94.9330000000	41
94.9630000000	43
94.9930000000	39
95.0230000000	37
95.0530000000	40
95.0830000000	31
95.1130000000	38
95.1430000000	38
95.1730000000	40
95.2030000000	47
95.2330000000	42
95.2630000000	28
95.2930000000	46
95.3230000000	40
95.3530000000	28
95.3830000000	38
95.4130000000	39
95.4430000000	46
95.4730000000	31
95.5030000000	35
95.5330000000	41
95.5630000000	40
95.5930000000	45
95.6230000000	40
95.6530000000	33
95.6830000000	33
95.7130000000	44
95.7430000000	41
95.7730000000	38
95.8030000000	40
95.8330000000	35
95.8630000000	37
95.8930000000	39
95.9230000000	46
95.9530000000	49
95.9830000000	41
96.0130000000	34
96.0430000000	37
96.0730000000	34
96.1030000000	35
96.1330000000	48
96.1630000000	34
96.1930000000	34
96.2230000000	29
96.2530000000	35
96.2830000000	38
96.3130000000	34
96.3430000000	35
96.3730000000	48
96.4030000000	33
96.4330000000	45
96.4630000000	36
96.4930000000	34
96.5230000000	39
96.5530000000	42
96.5830000000	37
96.6130000000	31
96.6430000000	38
96.6730000000	38
96.7030000000	46
96.7330000000	31
96.7630000000	29
96.7930000000	34
96.8230000000	38
96.8530000000	41
96.8830000000	40
96.9130000000	39
96.9430000000	44
96.9730000000	41
97.0030000000	29
97.0330000000	29
97.0630000000	47
97.0930000000	37
97.1230000000	37
97.1530000000	48
97.1830000000	34
97.2130000000	37
97.2430000000	36
97.2730000000	43
97.3030000000	35
97.3330000000	31
97.3630000000	36
97.3930000000	35
97.4230000000	34
97.4530000000	41
97.4830000000	51
97.5130000000	37
97.5430000000	35
97.5730000000	40
97.6030000000	38
97.6330000000	48
97.6630000000	33
97.6930000000	42
97.7230000000	41
97.7530000000	39
97.7830000000	40
97.8130000000	32
97.8430000000	41
97.8730000000	39
97.9030000000	34
97.9330000000	33
97.9630000000	28
97.9930000000	32
98.0230000000	37
98.0530000000	38
98.0830000000	44
98.1130000000	32
98.1430000000	34
98.1730000000	37
98.2030000000	37
98.2330000000	31
98.2630000000	30
98.2930000000	36
98.3230000000	33
98.3530000000	31
98.3830000000	33
98.4130000000	41
98.4430000000	37
98.4730000000	34
98.5030000000	31
98.5330000000	39
98.5630000000	40
98.5930000000	42
98.6230000000	53
98.6530000000	48
98.6830000000	46
98.7130000000	47
98.7430000000	51
98.7730000000	50
98.8030000000	41
98.8330000000	41
98.8630000000	51
98.8930000000	43
98.9230000000	35
98.9530000000	43
98.9830000000	36
99.0130000000	44
99.0430000000	46
99.0730000000	34
99.1030000000	45
99.1330000000	33
99.1630000000	45
99.1930000000	31
99.2230000000	29
99.2530000000	24
99.2830000000	33
99.3130000000	42
99.3430000000	31
99.3730000000	41
99.4030000000	32
99.4330000000	39
99.4630000000	38
99.4930000000	30
99.5230000000	28
99.5530000000	42
99.5830000000	30
99.6130000000	37
99.6430000000	31
99.6730000000	38
99.7030000000	26
99.7330000000	38
99.7630000000	43
99.7930000000	34
99.8230000000	30
99.8530000000	33
99.8830000000	37
99.9130000000	32
99.9430000000	35
99.9730000000	43
100.0030000000	37
100.0330000000	33
100.0630000000	29
100.0930000000	21
100.1230000000	26
100.1530000000	37
100.1830000000	40
100.2130000000	39
100.2430000000	39
100.2730000000	41
100.3030000000	39
100.3330000000	20
100.3630000000	41
100.3930000000	39
100.4230000000	36
100.4530000000	35
100.4830000000	29
100.5130000000	35
100.5430000000	35
100.5730000000	27
100.6030000000	32
100.6330000000	37
100.6630000000	35
100.6930000000	38
100.7230000000	37
100.7530000000	41
100.7830000000	37
100.8130000000	39
100.8430000000	33
100.8730000000	31
100.9030000000	27
100.9330000000	44
100.9630000000	36
100.9930000000	42
101.0230000000	29
101.0530000000	46
101.0830000000	45
101.1130000000	25
101.1430000000	37
101.1730000000	32
101.2030000000	37
101.2330000000	43
101.2630000000	28
101.2930000000	31
101.3230000000	38
101.3530000000	38
101.3830000000	36
101.4130000000	40
101.4430000000	30
101.4730000000	27
101.5030000000	35
101.5330000000	29
101.5630000000	25
101.5930000000	34
101.6230000000	30
101.6530000000	27
101.6830000000	36
101.7130000000	36
101.7430000000	31
101.7730000000	34
101.8030000000	27
101.8330000000	22
101.8630000000	43
101.8930000000	38
101.9230000000	32
101.9530000000	32
101.9830000000	34
102.0130000000	35
102.0430000000	39
102.0730000000	27
102.1030000000	36
102.1330000000	31
102.1630000000	28
102.1930000000	35
102.2230000000	38
102.2530000000	28
102.2830000000	28
102.3130000000	34
102.3430000000	29
102.3730000000	36
102.4030000000	38
102.4330000000	40
102.4630000000	41
102.4930000000	36
102.5230000000	29
102.5530000000	52
102.5830000000	38
102.6130000000	27
102.6430000000	32
102.6730000000	42
102.7030000000	42
102.7330000000	32
102.7630000000	43
102.7930000000	32
102.8230000000	30
102.8530000000	21
102.8830000000	28
102.9130000000	29
102.9430000000	31
102.9730000000	35
103.0030000000	35
103.0330000000	41
103.0630000000	30
103.0930000000	34
103.1230000000	34
103.1530000000	36
103.1830000000	40
103.2130000000	40
103.2430000000	35
103.2730000000	37
103.3030000000	41
103.3330000000	35
103.3630000000	43
103.3930000000	47
103.4230000000	39
103.4530000000	32
103.4830000000	32
103.5130000000	27
103.5430000000	39
103.5730000000	39
103.6030000000	27
103.6330000000	34
103.6630000000	33
103.6930000000	33
103.7230000000	35
103.7530000000	38
103.7830000000	35
103.8130000000	43
103.8430000000	35
103.8730000000	30
103.9030000000	38
103.9330000000	36
103.9630000000	54
103.9930000000	39
104.0230000000	36
104.0530000000	45
104.0830000000	52
104.1130000000	55
104.1430000000	51
104.1730000000	45
104.2030000000	43
104.2330000000	41
104.2630000000	55
104.2930000000	50
104.3230000000	39
104.3530000000	48
104.3830000000	41
104.4130000000	50
104.4430000000	35
104.4730000000	37
104.5030000000	48
104.5330000000	44
104.5630000000	26
104.5930000000	38
104.6230000000	36
104.6530000000	35
104.6830000000	36
104.7130000000	35
104.7430000000	42
104.7730000000	37
104.8030000000	32
104.8330000000	45
104.8630000000	39
104.8930000000	46
104.9230000000	45
104.9530000000	41
104.9830000000	44
105.0130000000	45
105.0430000000	45
105.0730000000	47
105.1030000000	43
105.1330000000	45
105.1630000000	33
105.1930000000	27
105.2230000000	51
105.2530000000	33
105.2830000000	30
105.3130000000	42
105.3430000000	40
105.3730000000	42
105.4030000000	35
105.4330000000	38
105.4630000000	38
105.4930000000	25
105.5230000000	36
105.5530000000	30
105.5830000000	38
105.6130000000	34
105.6430000000	24
105.6730000000	27
105.7030000000	39
105.7330000000	26
105.7630000000	29
105.7930000000	41
105.8230000000	34
105.8530000000	43
105.8830000000	35
105.9130000000	31
105.9430000000	33
105.9730000000	29
106.0030000000	33
106.0330000000	32
106.0630000000	34
106.0930000000	26
106.1230000000	29
106.1530000000	37
106.1830000000	28
106.2130000000	42
106.2430000000	32
106.2730000000	36
106.3030000000	35
106.3330000000	39
106.3630000000	23
106.3930000000	32
106.4230000000	33
106.4530000000	28
106.4830000000	38
106.5130000000	30
106.5430000000	31
106.5730000000	23
106.6030000000	37
106.6330000000	34
106.6630000000	33
106.6930000000	36
106.7230000000	28
106.7530000000	36
106.7830000000	37
106.8130000000	31
106.8430000000	35
106.8730000000	35
106.9030000000	34
106.9330000000	47
106.9630000000	35
106.9930000000	37
107.0230000000	37
107.0530000000	38
107.0830000000	33
107.1130000000	27
107.1430000000	42
107.1730000000	41
107.2030000000	40
107.2330000000	36
107.2630000000	34
107.2930000000	26
107.3230000000	37
107.3530000000	50
107.3830000000	42
107.4130000000	35
107.4430000000	33
107.4730000000	33
107.5030000000	37
107.5330000000	37
107.5630000000	38
107.5930000000	43
107.6230000000	43
107.6530000000	35
107.6830000000	37
107.7130000000	38
107.7430000000	44
107.7730000000	42
107.8030000000	30
107.8330000000	29
107.8630000000	36
107.8930000000	39
107.9230000000	35
107.9530000000	30
107.9830000000	31
108.0130000000	37
108.0430000000	32
108.0730000000	34
108.1030000000	25
108.1330000000	34
108.1630000000	39
108.1930000000	30
108.2230000000	39
108.2530000000	32
108.2830000000	55
108.3130000000	42
108.3430000000	42
108.3730000000	49
108.4030000000	44
108.4330000000	46
108.4630000000	34
108.4930000000	46
108.5230000000	30
108.5530000000	41
108.5830000000	50
108.6130000000	53
108.6430000000	37
108.6730000000	33
108.7030000000	46
108.7330000000	54
108.7630000000	42
108.7930000000	33
108.8230000000	49
108.8530000000	54
108.8830000000	57
108.9130000000	53
108.9430000000	66
108.9730000000	60
109.0030000000	70
109.0330000000	65
109.0630000000	58
109.0930000000	59
109.1230000000	55
109.1530000000	48
109.1830000000	45
109.2130000000	45
109.2430000000	46
109.2730000000	43
109.3030000000	56
109.3330000000	55
109.3630000000	53
109.3930000000	52
109.4230000000	39
109.4530000000	30
109.4830000000	33
109.5130000000	46
109.5430000000	28
109.5730000000	40
109.6030000000	38
109.6330000000	34
109.6630000000	40
109.6930000000	37
109.7230000000	32
109.7530000000	48
109.7830000000	36
109.8130000000	36
109.8430000000	30
109.8730000000	41
109.9030000000	36
109.9330000000	37
109.9630000000	37
109.9930000000	40
110.0230000000	34
110.0530000000	36
110.0830000000	52
110.1130000000	42
110.1430000000	39
110.1730000000	36
110.2030000000	33
110.2330000000	47
110.2630000000	44
110.2930000000	38
110.3230000000	42
110.3530000000	40
110.3830000000	38
110.4130000000	43
110.4430000000	33
110.4730000000	37
110.5030000000	26
110.5330000000	34
110.5630000000	40
110.5930000000	35
110.6230000000	27
110.6530000000	29
110.6830000000	40
110.7130000000	37
110.7430000000	37
110.7730000000	31
110.8030000000	36
110.8330000000	36
110.8630000000	28
110.8930000000	30
110.9230000000	35
110.9530000000	41
110.9830000000	39
111.0130000000	34
111.0430000000	46
111.0730000000	48
111.1030000000	43
111.1330000000	43
111.1630000000	34
111.1930000000	40
111.2230000000	53
111.2530000000	42
111.2830000000	41
111.3130000000	36
111.3430000000	48
111.3730000000	48
111.4030000000	41
111.4330000000	48
111.4630000000	42
111.4930000000	46
111.5230000000	45
111.5530000000	41
111.5830000000	42
111.6130000000	49
111.6430000000	36
111.6730000000	34
111.7030000000	43
111.7330000000	35
111.7630000000	35
111.7930000000	44
111.8230000000	45
111.8530000000	38
111.8830000000	39
111.9130000000	28
111.9430000000	42
111.9730000000	31
112.0030000000	42
112.0330000000	32
112.0630000000	38
112.0930000000	41
112.1230000000	23
112.1530000000	32
112.1830000000	47
112.2130000000	33
112.2430000000	38
112.2730000000	33
112.3030000000	49
112.3330000000	44
112.3630000000	37
112.3930000000	36
112.4230000000	38
112.4530000000	39
112.4830000000	38
112.5130000000	40
112.5430000000	42
112.5730000000	32
112.6030000000	36
112.6330000000	38
112.6630000000	39
112.6930000000	30
112.7230000000	29
112.7530000000	42
112.7830000000	46
112.8130000000	37
112.8430000000	36
112.8730000000	45
112.9030000000	38
112.9330000000	32
112.9630000000	33
112.9930000000	36
113.0230000000	42
113.0530000000	34
113.0830000000	36
113.1130000000	43
113.1430000000	45
113.1730000000	45
113.2030000000	43
113.2330000000	35
113.2630000000	32
113.2930000000	41
113.3230000000	36
113.3530000000	37
113.3830000000	37
113.4130000000	37
113.4430000000	39
113.4730000000	30
113.5030000000	24
113.5330000000	42
113.5630000000	44
113.5930000000	36
113.6230000000	43
113.6530000000	33
113.6830000000	30
113.7130000000	39
113.7430000000	43
113.7730000000	33
113.8030000000	38
113.8330000000	36
113.8630000000	40
113.8930000000	43
113.9230000000	32
113.9530000000	37
113.9830000000	28
114.0130000000	37
114.0430000000	43
114.0730000000	40
114.1030000000	50
114.1330000000	38
114.1630000000	35
114.1930000000	37
114.2230000000	47
114.2530000000	52
114.2830000000	50
114.3130000000	47
114.3430000000	40
114.3730000000	43
114.4030000000	35
114.4330000000	42
114.4630000000	1
114.4930000000	1
114.5230000000	1
114.5530000000	1
114.5830000000	1
