0.3130000000	1
0.3430000000	1
0.3730000000	1
0.4030000000	1
0.4330000000	1
0.4630000000	1
0.4930000000	1
0.5230000000	1
0.5530000000	1
0.5830000000	2
0.6130000000	1
0.6430000000	1
0.6730000000	1
0.7030000000	1
0.7330000000	1
0.7630000000	1
0.7930000000	1
0.8230000000	1
0.8530000000	1
0.8830000000	1
0.9130000000	1
0.9430000000	1
0.9730000000	1
1.0030000000	1
1.0330000000	1
1.0630000000	1
1.0930000000	1
1.1230000000	1
1.1530000000	1
1.1830000000	1
1.2130000000	1
1.2430000000	1
1.2730000000	1
1.3030000000	1
1.3330000000	1
1.3630000000	2
1.3930000000	1
1.4230000000	1
1.4530000000	1
1.4830000000	2
1.5130000000	1
1.5430000000	1
1.5730000000	2
1.6030000000	2
1.6330000000	1
1.6630000000	1
1.6930000000	1
1.7230000000	1
1.7530000000	1
1.7830000000	2
1.8130000000	1
1.8430000000	2
1.8730000000	1
1.9030000000	1
1.9330000000	1
1.9630000000	1
1.9930000000	1
2.0230000000	1
2.0530000000	1
2.0830000000	1
2.1130000000	1
2.1430000000	1
2.1730000000	1
2.2030000000	2
2.2330000000	2
2.2630000000	1
2.2930000000	2
2.3230000000	1
2.3530000000	1
2.3830000000	2
2.4130000000	2
2.4430000000	2
2.4730000000	1
2.5030000000	1
2.5330000000	1
2.5630000000	1
2.5930000000	3
2.6230000000	2
2.6530000000	1
2.6830000000	2
2.7130000000	1
2.7430000000	1
2.7730000000	1
2.8030000000	1
2.8330000000	1
2.8630000000	1
2.8930000000	1
2.9230000000	1
2.9530000000	1
2.9830000000	1
3.0130000000	1
3.0430000000	1
3.0730000000	1
3.1030000000	2
3.1330000000	2
3.1630000000	1
3.1930000000	2
3.2230000000	1
3.2530000000	2
3.2830000000	1
3.3130000000	3
3.3430000000	2
3.3730000000	1
3.4030000000	1
3.4330000000	1
3.4630000000	2
3.4930000000	3
3.5230000000	2
3.5530000000	3
3.5830000000	1
3.6130000000	1
3.6430000000	3
3.6730000000	1
3.7030000000	2
3.7330000000	3
3.7630000000	2
3.7930000000	1
3.8230000000	1
3.8530000000	2
3.8830000000	3
3.9130000000	5
3.9430000000	1
3.9730000000	1
4.0030000000	1
4.0330000000	3
4.0630000000	4
4.0930000000	3
4.1230000000	2
4.1530000000	2
4.1830000000	3
4.2130000000	5
4.2430000000	2
4.2730000000	4
4.3030000000	8
4.3330000000	0
4.3630000000	3
4.3930000000	7
4.4230000000	8
4.4530000000	9
4.4830000000	13
4.5130000000	15
4.5430000000	42
4.5730000000	50
4.6030000000	69
4.6330000000	86
4.6630000000	102
4.6930000000	122
4.7230000000	137
4.7530000000	122
4.7830000000	129
4.8130000000	133
4.8430000000	112
4.8730000000	139
4.9030000000	134
4.9330000000	149
4.9630000000	168
4.9930000000	141
5.0230000000	153
5.0530000000	156
5.0830000000	141
5.1130000000	157
5.1430000000	133
5.1730000000	128
5.2030000000	139
5.2330000000	115
5.2630000000	162
5.2930000000	136
5.3230000000	165
5.3530000000	144
5.3830000000	150
5.4130000000	145
5.4430000000	128
5.4730000000	163
5.5030000000	135
5.5330000000	155
5.5630000000	139
5.5930000000	147
5.6230000000	150
5.6530000000	138
5.6830000000	148
5.7130000000	151
5.7430000000	148
5.7730000000	133
5.8030000000	130
5.8330000000	140
5.8630000000	142
5.8930000000	143
5.9230000000	160
5.9530000000	172
5.9830000000	157
6.0130000000	168
6.0430000000	156
6.0730000000	151
6.1030000000	143
6.1330000000	130
6.1630000000	145
6.1930000000	145
6.2230000000	144
6.2530000000	140
6.2830000000	154
6.3130000000	145
6.3430000000	166
6.3730000000	158
6.4030000000	144
6.4330000000	160
6.4630000000	169
6.4930000000	163
6.5230000000	131
6.5530000000	147
6.5830000000	144
6.6130000000	146
6.6430000000	149
6.6730000000	137
6.7030000000	161
6.7330000000	143
6.7630000000	154
6.7930000000	132
6.8230000000	167
6.8530000000	149
6.8830000000	143
6.9130000000	160
6.9430000000	152
6.9730000000	152
7.0030000000	136
7.0330000000	149
7.0630000000	148
7.0930000000	131
7.1230000000	142
7.1530000000	157
7.1830000000	138
7.2130000000	133
7.2430000000	134
7.2730000000	149
7.3030000000	161
7.3330000000	139
7.3630000000	127
7.3930000000	152
7.4230000000	141
7.4530000000	130
7.4830000000	153
7.5130000000	157
7.5430000000	135
7.5730000000	138
7.6030000000	167
7.6330000000	155
7.6630000000	142
7.6930000000	159
7.7230000000	150
7.7530000000	132
7.7830000000	130
7.8130000000	142
7.8430000000	153
7.8730000000	154
7.9030000000	148
7.9330000000	128
7.9630000000	135
7.9930000000	158
8.0230000000	151
8.0530000000	151
8.0830000000	134
8.1130000000	144
8.1430000000	139
8.1730000000	159
8.2030000000	117
8.2330000000	133
8.2630000000	137
8.2930000000	137
8.3230000000	171
8.3530000000	150
8.3830000000	142
8.4130000000	156
8.4430000000	149
8.4730000000	136
8.5030000000	151
8.5330000000	166
8.5630000000	128
8.5930000000	168
8.6230000000	137
8.6530000000	145
8.6830000000	153
8.7130000000	156
8.7430000000	131
8.7730000000	141
8.8030000000	143
8.8330000000	139
8.8630000000	141
8.8930000000	161
8.9230000000	145
8.9530000000	136
8.9830000000	124
9.0130000000	128
9.0430000000	141
9.0730000000	149
9.1030000000	147
9.1330000000	159
9.1630000000	158
9.1930000000	170
9.2230000000	139
9.2530000000	144
9.2830000000	156
9.3130000000	149
9.3430000000	141
9.3730000000	140
9.4030000000	152
9.4330000000	143
9.4630000000	143
9.4930000000	146
9.5230000000	141
9.5530000000	140
9.5830000000	141
9.6130000000	176
9.6430000000	135
9.6730000000	129
9.7030000000	148
9.7330000000	164
9.7630000000	176
9.7930000000	151
9.8230000000	139
9.8530000000	130
9.8830000000	165
9.9130000000	134
9.9430000000	138
9.9730000000	139
10.0030000000	144
10.0330000000	144
10.0630000000	139
10.0930000000	178
10.1230000000	151
10.1530000000	161
10.1830000000	142
10.2130000000	151
10.2430000000	123
10.2730000000	135
10.3030000000	156
10.3330000000	135
10.3630000000	157
10.3930000000	136
10.4230000000	143
10.4530000000	166
10.4830000000	149
10.5130000000	148
10.5430000000	138
10.5730000000	157
10.6030000000	173
10.6330000000	140
10.6630000000	155
10.6930000000	135
10.7230000000	128
10.7530000000	163
10.7830000000	144
10.8130000000	154
10.8430000000	159
10.8730000000	172
10.9030000000	117
10.9330000000	169
10.9630000000	134
10.9930000000	121
11.0230000000	132
11.0530000000	160
11.0830000000	139
11.1130000000	128
11.1430000000	149
11.1730000000	135
11.2030000000	162
11.2330000000	140
11.2630000000	157
11.2930000000	145
11.3230000000	146
11.3530000000	165
11.3830000000	157
11.4130000000	166
11.4430000000	157
11.4730000000	151
11.5030000000	155
11.5330000000	152
11.5630000000	127
11.5930000000	149
11.6230000000	155
11.6530000000	151
11.6830000000	156
11.7130000000	139
11.7430000000	152
11.7730000000	158
11.8030000000	159
11.8330000000	147
11.8630000000	141
11.8930000000	143
11.9230000000	149
11.9530000000	147
11.9830000000	160
12.0130000000	142
12.0430000000	143
12.0730000000	155
12.1030000000	137
12.1330000000	141
12.1630000000	150
12.1930000000	148
12.2230000000	152
12.2530000000	155
12.2830000000	154
12.3130000000	159
12.3430000000	172
12.3730000000	152
12.4030000000	140
12.4330000000	130
12.4630000000	130
12.4930000000	144
12.5230000000	148
12.5530000000	146
12.5830000000	158
12.6130000000	160
12.6430000000	160
12.6730000000	143
12.7030000000	151
12.7330000000	164
12.7630000000	137
12.7930000000	135
12.8230000000	164
12.8530000000	153
12.8830000000	158
12.9130000000	148
12.9430000000	133
12.9730000000	145
13.0030000000	151
13.0330000000	147
13.0630000000	155
13.0930000000	160
13.1230000000	134
13.1530000000	139
13.1830000000	157
13.2130000000	140
13.2430000000	147
13.2730000000	131
13.3030000000	149
13.3330000000	170
13.3630000000	133
13.3930000000	146
13.4230000000	142
13.4530000000	130
13.4830000000	144
13.5130000000	146
13.5430000000	155
13.5730000000	148
13.6030000000	146
13.6330000000	125
13.6630000000	120
13.6930000000	132
13.7230000000	160
13.7530000000	158
13.7830000000	166
13.8130000000	140
13.8430000000	165
13.8730000000	127
13.9030000000	132
13.9330000000	152
13.9630000000	153
13.9930000000	159
14.0230000000	152
14.0530000000	153
14.0830000000	153
14.1130000000	134
14.1430000000	143
14.1730000000	156
14.2030000000	146
14.2330000000	169
14.2630000000	136
14.2930000000	159
14.3230000000	143
14.3530000000	136
14.3830000000	140
14.4130000000	137
14.4430000000	125
14.4730000000	157
14.5030000000	153
14.5330000000	141
14.5630000000	142
14.5930000000	142
14.6230000000	137
14.6530000000	157
14.6830000000	138
14.7130000000	141
14.7430000000	168
14.7730000000	159
14.8030000000	139
14.8330000000	157
14.8630000000	154
14.8930000000	145
14.9230000000	141
14.9530000000	144
14.9830000000	140
15.0130000000	144
15.0430000000	149
15.0730000000	168
15.1030000000	156
15.1330000000	136
15.1630000000	150
15.1930000000	154
15.2230000000	163
15.2530000000	155
15.2830000000	149
15.3130000000	140
15.3430000000	160
15.3730000000	157
15.4030000000	158
15.4330000000	136
15.4630000000	164
15.4930000000	152
15.5230000000	143
15.5530000000	163
15.5830000000	135
15.6130000000	163
15.6430000000	154
15.6730000000	165
15.7030000000	156
15.7330000000	155
15.7630000000	156
15.7930000000	155
15.8230000000	171
15.8530000000	150
15.8830000000	158
15.9130000000	140
15.9430000000	136
15.9730000000	138
16.0030000000	134
16.0330000000	149
16.0630000000	151
16.0930000000	142
16.1230000000	144
16.1530000000	133
16.1830000000	142
16.2130000000	148
16.2430000000	143
16.2730000000	130
16.3030000000	143
16.3330000000	144
16.3630000000	155
16.3930000000	160
16.4230000000	143
16.4530000000	147
16.4830000000	139
16.5130000000	164
16.5430000000	146
16.5730000000	148
16.6030000000	152
16.6330000000	151
16.6630000000	141
16.6930000000	159
16.7230000000	133
16.7530000000	156
16.7830000000	161
16.8130000000	138
16.8430000000	155
16.8730000000	153
16.9030000000	157
16.9330000000	145
16.9630000000	139
16.9930000000	124
17.0230000000	147
17.0530000000	143
17.0830000000	160
17.1130000000	166
17.1430000000	171
17.1730000000	157
17.2030000000	147
17.2330000000	148
17.2630000000	167
17.2930000000	162
17.3230000000	137
17.3530000000	139
17.3830000000	158
17.4130000000	157
17.4430000000	137
17.4730000000	127
17.5030000000	147
17.5330000000	156
17.5630000000	162
17.5930000000	163
17.6230000000	170
17.6530000000	165
17.6830000000	150
17.7130000000	153
17.7430000000	163
17.7730000000	169
17.8030000000	161
17.8330000000	152
17.8630000000	151
17.8930000000	145
17.9230000000	140
17.9530000000	161
17.9830000000	154
18.0130000000	128
18.0430000000	134
18.0730000000	141
18.1030000000	169
18.1330000000	159
18.1630000000	158
18.1930000000	160
18.2230000000	144
18.2530000000	128
18.2830000000	140
18.3130000000	179
18.3430000000	146
18.3730000000	164
18.4030000000	158
18.4330000000	166
18.4630000000	161
18.4930000000	160
18.5230000000	158
18.5530000000	154
18.5830000000	143
18.6130000000	135
18.6430000000	142
18.6730000000	170
18.7030000000	166
18.7330000000	150
18.7630000000	150
18.7930000000	162
18.8230000000	172
18.8530000000	167
18.8830000000	142
18.9130000000	145
18.9430000000	151
18.9730000000	151
19.0030000000	144
19.0330000000	146
19.0630000000	135
19.0930000000	146
19.1230000000	140
19.1530000000	168
19.1830000000	164
19.2130000000	139
19.2430000000	144
19.2730000000	151
19.3030000000	171
19.3330000000	166
19.3630000000	162
19.3930000000	157
19.4230000000	150
19.4530000000	159
19.4830000000	148
19.5130000000	151
19.5430000000	144
19.5730000000	154
19.6030000000	183
19.6330000000	160
19.6630000000	143
19.6930000000	158
19.7230000000	159
19.7530000000	170
19.7830000000	163
19.8130000000	157
19.8430000000	162
19.8730000000	149
19.9030000000	149
19.9330000000	170
19.9630000000	161
19.9930000000	167
20.0230000000	168
20.0530000000	153
20.0830000000	148
20.1130000000	171
20.1430000000	129
20.1730000000	159
20.2030000000	158
20.2330000000	157
20.2630000000	164
20.2930000000	156
20.3230000000	163
20.3530000000	161
20.3830000000	154
20.4130000000	156
20.4430000000	173
20.4730000000	171
20.5030000000	195
20.5330000000	182
20.5630000000	166
20.5930000000	137
20.6230000000	164
20.6530000000	165
20.6830000000	176
20.7130000000	191
20.7430000000	172
20.7730000000	162
20.8030000000	167
20.8330000000	193
20.8630000000	180
20.8930000000	164
20.9230000000	159
20.9530000000	163
20.9830000000	148
21.0130000000	179
21.0430000000	187
21.0730000000	182
21.1030000000	186
21.1330000000	159
21.1630000000	161
21.1930000000	155
21.2230000000	180
21.2530000000	154
21.2830000000	165
21.3130000000	164
21.3430000000	152
21.3730000000	184
21.4030000000	171
21.4330000000	180
21.4630000000	195
21.4930000000	165
21.5230000000	167
21.5530000000	166
21.5830000000	186
21.6130000000	175
21.6430000000	189
21.6730000000	172
21.7030000000	171
21.7330000000	178
21.7630000000	178
21.7930000000	173
21.8230000000	183
21.8530000000	178
21.8830000000	184
21.9130000000	178
21.9430000000	173
21.9730000000	181
22.0030000000	173
22.0330000000	160
22.0630000000	168
22.0930000000	192
22.1230000000	196
22.1530000000	178
22.1830000000	191
22.2130000000	182
22.2430000000	172
22.2730000000	189
22.3030000000	191
22.3330000000	183
22.3630000000	196
22.3930000000	189
22.4230000000	176
22.4530000000	182
22.4830000000	190
22.5130000000	200
22.5430000000	194
22.5730000000	186
22.6030000000	181
22.6330000000	187
22.6630000000	196
22.6930000000	183
22.7230000000	180
22.7530000000	181
22.7830000000	176
22.8130000000	185
22.8430000000	171
22.8730000000	205
22.9030000000	218
22.9330000000	180
22.9630000000	226
22.9930000000	207
23.0230000000	193
23.0530000000	217
23.0830000000	207
23.1130000000	225
23.1430000000	205
23.1730000000	189
23.2030000000	205
23.2330000000	208
23.2630000000	193
23.2930000000	233
23.3230000000	205
23.3530000000	250
23.3830000000	241
23.4130000000	256
23.4430000000	311
23.4730000000	428
23.5030000000	562
23.5330000000	832
23.5630000000	1197
23.5930000000	1712
23.6230000000	2688
23.6530000000	3802
23.6830000000	4631
23.7130000000	4093
23.7430000000	3019
23.7730000000	2017
23.8030000000	1350
23.8330000000	856
23.8630000000	563
23.8930000000	407
23.9230000000	311
23.9530000000	273
23.9830000000	266
24.0130000000	217
24.0430000000	209
24.0730000000	223
24.1030000000	234
24.1330000000	215
24.1630000000	219
24.1930000000	217
24.2230000000	224
24.2530000000	210
24.2830000000	180
24.3130000000	196
24.3430000000	195
24.3730000000	208
24.4030000000	158
24.4330000000	209
24.4630000000	184
24.4930000000	191
24.5230000000	182
24.5530000000	210
24.5830000000	189
24.6130000000	215
24.6430000000	194
24.6730000000	199
24.7030000000	194
24.7330000000	195
24.7630000000	177
24.7930000000	192
24.8230000000	197
24.8530000000	183
24.8830000000	192
24.9130000000	172
24.9430000000	176
24.9730000000	203
25.0030000000	200
25.0330000000	196
25.0630000000	184
25.0930000000	184
25.1230000000	170
25.1530000000	186
25.1830000000	195
25.2130000000	202
25.2430000000	186
25.2730000000	185
25.3030000000	195
25.3330000000	195
25.3630000000	211
25.3930000000	207
25.4230000000	176
25.4530000000	174
25.4830000000	183
25.5130000000	174
25.5430000000	191
25.5730000000	163
25.6030000000	184
25.6330000000	180
25.6630000000	187
25.6930000000	178
25.7230000000	183
25.7530000000	212
25.7830000000	204
25.8130000000	171
25.8430000000	161
25.8730000000	190
25.9030000000	204
25.9330000000	193
25.9630000000	202
25.9930000000	199
26.0230000000	173
26.0530000000	166
26.0830000000	192
26.1130000000	186
26.1430000000	198
26.1730000000	184
26.2030000000	185
26.2330000000	184
26.2630000000	173
26.2930000000	206
26.3230000000	176
26.3530000000	182
26.3830000000	188
26.4130000000	193
26.4430000000	176
26.4730000000	190
26.5030000000	200
26.5330000000	192
26.5630000000	180
26.5930000000	173
26.6230000000	192
26.6530000000	197
26.6830000000	186
26.7130000000	169
26.7430000000	171
26.7730000000	188
26.8030000000	196
26.8330000000	181
26.8630000000	146
26.8930000000	154
26.9230000000	178
26.9530000000	186
26.9830000000	185
27.0130000000	199
27.0430000000	192
27.0730000000	159
27.1030000000	168
27.1330000000	182
27.1630000000	166
27.1930000000	158
27.2230000000	180
27.2530000000	173
27.2830000000	162
27.3130000000	174
27.3430000000	186
27.3730000000	178
27.4030000000	135
27.4330000000	161
27.4630000000	173
27.4930000000	182
27.5230000000	159
27.5530000000	138
27.5830000000	170
27.6130000000	152
27.6430000000	165
27.6730000000	147
27.7030000000	167
27.7330000000	172
27.7630000000	171
27.7930000000	164
27.8230000000	172
27.8530000000	192
27.8830000000	185
27.9130000000	185
27.9430000000	174
27.9730000000	180
28.0030000000	183
28.0330000000	181
28.0630000000	175
28.0930000000	173
28.1230000000	197
28.1530000000	179
28.1830000000	191
28.2130000000	178
28.2430000000	177
28.2730000000	137
28.3030000000	166
28.3330000000	159
28.3630000000	182
28.3930000000	170
28.4230000000	156
28.4530000000	175
28.4830000000	153
28.5130000000	175
28.5430000000	153
28.5730000000	151
28.6030000000	174
28.6330000000	191
28.6630000000	160
28.6930000000	162
28.7230000000	180
28.7530000000	154
28.7830000000	166
28.8130000000	166
28.8430000000	176
28.8730000000	147
28.9030000000	152
28.9330000000	164
28.9630000000	155
28.9930000000	161
29.0230000000	163
29.0530000000	188
29.0830000000	170
29.1130000000	171
29.1430000000	160
29.1730000000	146
29.2030000000	166
29.2330000000	144
29.2630000000	150
29.2930000000	163
29.3230000000	151
29.3530000000	150
29.3830000000	151
29.4130000000	151
29.4430000000	155
29.4730000000	146
29.5030000000	153
29.5330000000	162
29.5630000000	176
29.5930000000	153
29.6230000000	169
29.6530000000	152
29.6830000000	177
29.7130000000	163
29.7430000000	151
29.7730000000	197
29.8030000000	173
29.8330000000	172
29.8630000000	141
29.8930000000	128
29.9230000000	142
29.9530000000	151
29.9830000000	161
30.0130000000	148
30.0430000000	174
30.0730000000	178
30.1030000000	137
30.1330000000	167
30.1630000000	143
30.1930000000	146
30.2230000000	157
30.2530000000	160
30.2830000000	150
30.3130000000	153
30.3430000000	185
30.3730000000	140
30.4030000000	180
30.4330000000	129
30.4630000000	154
30.4930000000	168
30.5230000000	179
30.5530000000	182
30.5830000000	169
30.6130000000	155
30.6430000000	166
30.6730000000	172
30.7030000000	170
30.7330000000	163
30.7630000000	174
30.7930000000	161
30.8230000000	153
30.8530000000	163
30.8830000000	153
30.9130000000	164
30.9430000000	161
30.9730000000	169
31.0030000000	165
31.0330000000	169
31.0630000000	146
31.0930000000	173
31.1230000000	177
31.1530000000	166
31.1830000000	153
31.2130000000	164
31.2430000000	151
31.2730000000	177
31.3030000000	167
31.3330000000	151
31.3630000000	168
31.3930000000	150
31.4230000000	169
31.4530000000	139
31.4830000000	164
31.5130000000	175
31.5430000000	168
31.5730000000	171
31.6030000000	153
31.6330000000	157
31.6630000000	169
31.6930000000	173
31.7230000000	182
31.7530000000	189
31.7830000000	164
31.8130000000	172
31.8430000000	145
31.8730000000	164
31.9030000000	165
31.9330000000	150
31.9630000000	153
31.9930000000	141
32.0230000000	141
32.0530000000	155
32.0830000000	152
32.1130000000	154
32.1430000000	136
32.1730000000	171
32.2030000000	137
32.2330000000	151
32.2630000000	156
32.2930000000	161
32.3230000000	144
32.3530000000	140
32.3830000000	159
32.4130000000	136
32.4430000000	148
32.4730000000	163
32.5030000000	144
32.5330000000	162
32.5630000000	146
32.5930000000	145
32.6230000000	166
32.6530000000	165
32.6830000000	155
32.7130000000	155
32.7430000000	155
32.7730000000	159
32.8030000000	168
32.8330000000	156
32.8630000000	152
32.8930000000	162
32.9230000000	153
32.9530000000	167
32.9830000000	163
33.0130000000	166
33.0430000000	171
33.0730000000	170
33.1030000000	179
33.1330000000	162
33.1630000000	154
33.1930000000	168
33.2230000000	166
33.2530000000	187
33.2830000000	162
33.3130000000	149
33.3430000000	175
33.3730000000	175
33.4030000000	186
33.4330000000	205
33.4630000000	197
33.4930000000	237
33.5230000000	271
33.5530000000	384
33.5830000000	538
33.6130000000	729
33.6430000000	1022
33.6730000000	1470
33.7030000000	1795
33.7330000000	2171
33.7630000000	2143
33.7930000000	1813
33.8230000000	1381
33.8530000000	903
33.8830000000	619
33.9130000000	440
33.9430000000	346
33.9730000000	258
34.0030000000	224
34.0330000000	207
34.0630000000	180
34.0930000000	181
34.1230000000	196
34.1530000000	165
34.1830000000	180
34.2130000000	180
34.2430000000	179
34.2730000000	162
34.3030000000	166
34.3330000000	164
34.3630000000	166
34.3930000000	162
34.4230000000	150
34.4530000000	169
34.4830000000	165
34.5130000000	157
34.5430000000	157
34.5730000000	157
34.6030000000	154
34.6330000000	152
34.6630000000	142
34.6930000000	139
34.7230000000	153
34.7530000000	177
34.7830000000	153
34.8130000000	138
34.8430000000	155
34.8730000000	143
34.9030000000	153
34.9330000000	148
34.9630000000	135
34.9930000000	141
35.0230000000	149
35.0530000000	149
35.0830000000	144
35.1130000000	136
35.1430000000	144
35.1730000000	151
35.2030000000	138
35.2330000000	118
35.2630000000	114
35.2930000000	144
35.3230000000	144
35.3530000000	137
35.3830000000	135
35.4130000000	141
35.4430000000	145
35.4730000000	130
35.5030000000	126
35.5330000000	111
35.5630000000	134
35.5930000000	129
35.6230000000	117
35.6530000000	121
35.6830000000	131
35.7130000000	128
35.7430000000	138
35.7730000000	151
35.8030000000	116
35.8330000000	124
35.8630000000	153
35.8930000000	149
35.9230000000	144
35.9530000000	142
35.9830000000	122
36.0130000000	135
36.0430000000	146
36.0730000000	134
36.1030000000	140
36.1330000000	129
36.1630000000	113
36.1930000000	123
36.2230000000	147
36.2530000000	125
36.2830000000	120
36.3130000000	134
36.3430000000	133
36.3730000000	132
36.4030000000	151
36.4330000000	131
36.4630000000	148
36.4930000000	132
36.5230000000	116
36.5530000000	113
36.5830000000	122
36.6130000000	136
36.6430000000	108
36.6730000000	127
36.7030000000	127
36.7330000000	131
36.7630000000	140
36.7930000000	111
36.8230000000	121
36.8530000000	135
36.8830000000	128
36.9130000000	124
36.9430000000	131
36.9730000000	118
37.0030000000	121
37.0330000000	118
37.0630000000	132
37.0930000000	136
37.1230000000	117
37.1530000000	111
37.1830000000	108
37.2130000000	144
37.2430000000	149
37.2730000000	124
37.3030000000	123
37.3330000000	130
37.3630000000	119
37.3930000000	122
37.4230000000	129
37.4530000000	104
37.4830000000	99
37.5130000000	116
37.5430000000	114
37.5730000000	117
37.6030000000	127
37.6330000000	107
37.6630000000	122
37.6930000000	114
37.7230000000	107
37.7530000000	127
37.7830000000	114
37.8130000000	106
37.8430000000	109
37.8730000000	114
37.9030000000	119
37.9330000000	111
37.9630000000	108
37.9930000000	106
38.0230000000	105
38.0530000000	114
38.0830000000	116
38.1130000000	113
38.1430000000	117
38.1730000000	128
38.2030000000	114
38.2330000000	108
38.2630000000	131
38.2930000000	140
38.3230000000	127
38.3530000000	121
38.3830000000	123
38.4130000000	119
38.4430000000	119
38.4730000000	108
38.5030000000	110
38.5330000000	99
38.5630000000	119
38.5930000000	122
38.6230000000	119
38.6530000000	139
38.6830000000	127
38.7130000000	113
38.7430000000	116
38.7730000000	124
38.8030000000	115
38.8330000000	106
38.8630000000	131
38.8930000000	138
38.9230000000	122
38.9530000000	108
38.9830000000	131
39.0130000000	154
39.0430000000	104
39.0730000000	115
39.1030000000	125
39.1330000000	104
39.1630000000	99
39.1930000000	120
39.2230000000	106
39.2530000000	132
39.2830000000	114
39.3130000000	118
39.3430000000	125
39.3730000000	120
39.4030000000	108
39.4330000000	114
39.4630000000	113
39.4930000000	124
39.5230000000	116
39.5530000000	129
39.5830000000	130
39.6130000000	123
39.6430000000	106
39.6730000000	120
39.7030000000	131
39.7330000000	99
39.7630000000	106
39.7930000000	105
39.8230000000	118
39.8530000000	123
39.8830000000	108
39.9130000000	114
39.9430000000	109
39.9730000000	117
40.0030000000	105
40.0330000000	95
40.0630000000	116
40.0930000000	115
40.1230000000	111
40.1530000000	113
40.1830000000	108
40.2130000000	103
40.2430000000	123
40.2730000000	123
40.3030000000	118
40.3330000000	94
40.3630000000	110
40.3930000000	125
40.4230000000	106
40.4530000000	117
40.4830000000	110
40.5130000000	141
40.5430000000	96
40.5730000000	108
40.6030000000	113
40.6330000000	112
40.6630000000	125
40.6930000000	120
40.7230000000	112
40.7530000000	131
40.7830000000	123
40.8130000000	121
40.8430000000	129
40.8730000000	105
40.9030000000	140
40.9330000000	116
40.9630000000	134
40.9930000000	126
41.0230000000	126
41.0530000000	116
41.0830000000	114
41.1130000000	125
41.1430000000	140
41.1730000000	123
41.2030000000	112
41.2330000000	128
41.2630000000	131
41.2930000000	121
41.3230000000	119
41.3530000000	97
41.3830000000	103
41.4130000000	144
41.4430000000	140
41.4730000000	140
41.5030000000	143
41.5330000000	154
41.5630000000	174
41.5930000000	220
41.6230000000	180
41.6530000000	211
41.6830000000	194
41.7130000000	180
41.7430000000	173
41.7730000000	161
41.8030000000	148
41.8330000000	126
41.8630000000	133
41.8930000000	124
41.9230000000	132
41.9530000000	129
41.9830000000	126
42.0130000000	124
42.0430000000	120
42.0730000000	110
42.1030000000	120
42.1330000000	102
42.1630000000	104
42.1930000000	117
42.2230000000	110
42.2530000000	115
42.2830000000	132
42.3130000000	134
42.3430000000	112
42.3730000000	126
42.4030000000	121
42.4330000000	109
42.4630000000	107
42.4930000000	113
42.5230000000	114
42.5530000000	105
42.5830000000	110
42.6130000000	114
42.6430000000	105
42.6730000000	99
42.7030000000	113
42.7330000000	113
42.7630000000	116
42.7930000000	127
42.8230000000	125
42.8530000000	121
42.8830000000	112
42.9130000000	124
42.9430000000	108
42.9730000000	104
43.0030000000	105
43.0330000000	87
43.0630000000	117
43.0930000000	94
43.1230000000	114
43.1530000000	115
43.1830000000	106
43.2130000000	109
43.2430000000	114
43.2730000000	112
43.3030000000	115
43.3330000000	127
43.3630000000	120
43.3930000000	123
43.4230000000	117
43.4530000000	110
43.4830000000	128
43.5130000000	119
43.5430000000	99
43.5730000000	133
43.6030000000	120
43.6330000000	107
43.6630000000	137
43.6930000000	118
43.7230000000	114
43.7530000000	115
43.7830000000	93
43.8130000000	123
43.8430000000	109
43.8730000000	109
43.9030000000	112
43.9330000000	97
43.9630000000	97
43.9930000000	120
44.0230000000	119
44.0530000000	119
44.0830000000	100
44.1130000000	128
44.1430000000	118
44.1730000000	97
44.2030000000	88
44.2330000000	100
44.2630000000	119
44.2930000000	105
44.3230000000	98
44.3530000000	106
44.3830000000	110
44.4130000000	108
44.4430000000	96
44.4730000000	109
44.5030000000	99
44.5330000000	98
44.5630000000	105
44.5930000000	107
44.6230000000	117
44.6530000000	108
44.6830000000	113
44.7130000000	107
44.7430000000	115
44.7730000000	107
44.8030000000	103
44.8330000000	90
44.8630000000	113
44.8930000000	99
44.9230000000	111
44.9530000000	107
44.9830000000	136
45.0130000000	102
45.0430000000	101
45.0730000000	96
45.1030000000	110
45.1330000000	124
45.1630000000	112
45.1930000000	110
45.2230000000	102
45.2530000000	99
45.2830000000	116
45.3130000000	111
45.3430000000	104
45.3730000000	97
45.4030000000	108
45.4330000000	115
45.4630000000	106
45.4930000000	94
45.5230000000	95
45.5530000000	84
45.5830000000	98
45.6130000000	98
45.6430000000	88
45.6730000000	83
45.7030000000	99
45.7330000000	101
45.7630000000	86
45.7930000000	111
45.8230000000	103
45.8530000000	115
45.8830000000	90
45.9130000000	84
45.9430000000	86
45.9730000000	98
46.0030000000	103
46.0330000000	117
46.0630000000	98
46.0930000000	101
46.1230000000	90
46.1530000000	101
46.1830000000	102
46.2130000000	106
46.2430000000	97
46.2730000000	101
46.3030000000	88
46.3330000000	100
46.3630000000	92
46.3930000000	102
46.4230000000	99
46.4530000000	103
46.4830000000	107
46.5130000000	106
46.5430000000	107
46.5730000000	102
46.6030000000	96
46.6330000000	92
46.6630000000	103
46.6930000000	103
46.7230000000	89
46.7530000000	92
46.7830000000	90
46.8130000000	115
46.8430000000	90
46.8730000000	102
46.9030000000	99
46.9330000000	99
46.9630000000	76
46.9930000000	104
47.0230000000	106
47.0530000000	106
47.0830000000	88
47.1130000000	95
47.1430000000	91
47.1730000000	80
47.2030000000	91
47.2330000000	99
47.2630000000	90
47.2930000000	109
47.3230000000	103
47.3530000000	82
47.3830000000	101
47.4130000000	96
47.4430000000	87
47.4730000000	112
47.5030000000	94
47.5330000000	97
47.5630000000	102
47.5930000000	80
47.6230000000	88
47.6530000000	101
47.6830000000	86
47.7130000000	96
47.7430000000	88
47.7730000000	100
47.8030000000	91
47.8330000000	77
47.8630000000	77
47.8930000000	108
47.9230000000	91
47.9530000000	80
47.9830000000	79
48.0130000000	92
48.0430000000	104
48.0730000000	90
48.1030000000	95
48.1330000000	88
48.1630000000	104
48.1930000000	101
48.2230000000	107
48.2530000000	126
48.2830000000	133
48.3130000000	166
48.3430000000	218
48.3730000000	274
48.4030000000	332
48.4330000000	397
48.4630000000	412
48.4930000000	381
48.5230000000	319
48.5530000000	292
48.5830000000	231
48.6130000000	177
48.6430000000	139
48.6730000000	125
48.7030000000	103
48.7330000000	103
48.7630000000	120
48.7930000000	104
48.8230000000	86
48.8530000000	85
48.8830000000	85
48.9130000000	94
48.9430000000	89
48.9730000000	81
49.0030000000	81
49.0330000000	76
49.0630000000	77
49.0930000000	84
49.1230000000	100
49.1530000000	93
49.1830000000	99
49.2130000000	76
49.2430000000	92
49.2730000000	97
49.3030000000	85
49.3330000000	73
49.3630000000	67
49.3930000000	95
49.4230000000	78
49.4530000000	68
49.4830000000	89
49.5130000000	95
49.5430000000	99
49.5730000000	66
49.6030000000	89
49.6330000000	94
49.6630000000	77
49.6930000000	92
49.7230000000	76
49.7530000000	81
49.7830000000	74
49.8130000000	87
49.8430000000	79
49.8730000000	84
49.9030000000	81
49.9330000000	94
49.9630000000	65
49.9930000000	79
50.0230000000	92
50.0530000000	85
50.0830000000	71
50.1130000000	95
50.1430000000	75
50.1730000000	73
50.2030000000	80
50.2330000000	89
50.2630000000	90
50.2930000000	80
50.3230000000	69
50.3530000000	71
50.3830000000	77
50.4130000000	78
50.4430000000	86
50.4730000000	86
50.5030000000	86
50.5330000000	66
50.5630000000	69
50.5930000000	94
50.6230000000	74
50.6530000000	78
50.6830000000	74
50.7130000000	75
50.7430000000	88
50.7730000000	80
50.8030000000	67
50.8330000000	81
50.8630000000	78
50.8930000000	71
50.9230000000	72
50.9530000000	70
50.9830000000	61
51.0130000000	65
51.0430000000	79
51.0730000000	79
51.1030000000	88
51.1330000000	87
51.1630000000	85
51.1930000000	82
51.2230000000	70
51.2530000000	66
51.2830000000	70
51.3130000000	68
51.3430000000	66
51.3730000000	63
51.4030000000	64
51.4330000000	64
51.4630000000	74
51.4930000000	77
51.5230000000	65
51.5530000000	77
51.5830000000	69
51.6130000000	58
51.6430000000	64
51.6730000000	60
51.7030000000	66
51.7330000000	60
51.7630000000	61
51.7930000000	74
51.8230000000	63
51.8530000000	69
51.8830000000	66
51.9130000000	69
51.9430000000	77
51.9730000000	58
52.0030000000	80
52.0330000000	68
52.0630000000	64
52.0930000000	91
52.1230000000	70
52.1530000000	55
52.1830000000	64
52.2130000000	69
52.2430000000	63
52.2730000000	61
52.3030000000	74
52.3330000000	75
52.3630000000	73
52.3930000000	80
52.4230000000	73
52.4530000000	88
52.4830000000	72
52.5130000000	70
52.5430000000	76
52.5730000000	59
52.6030000000	64
52.6330000000	55
52.6630000000	75
52.6930000000	77
52.7230000000	67
52.7530000000	61
52.7830000000	57
52.8130000000	51
52.8430000000	69
52.8730000000	76
52.9030000000	77
52.9330000000	69
52.9630000000	60
52.9930000000	54
53.0230000000	64
53.0530000000	64
53.0830000000	59
53.1130000000	69
53.1430000000	57
53.1730000000	64
53.2030000000	70
53.2330000000	59
53.2630000000	59
53.2930000000	63
53.3230000000	58
53.3530000000	61
53.3830000000	69
53.4130000000	70
53.4430000000	73
53.4730000000	53
53.5030000000	67
53.5330000000	63
53.5630000000	68
53.5930000000	53
53.6230000000	60
53.6530000000	73
53.6830000000	65
53.7130000000	75
53.7430000000	62
53.7730000000	58
53.8030000000	70
53.8330000000	57
53.8630000000	58
53.8930000000	65
53.9230000000	63
53.9530000000	82
53.9830000000	68
54.0130000000	57
54.0430000000	69
54.0730000000	60
54.1030000000	70
54.1330000000	55
54.1630000000	59
54.1930000000	68
54.2230000000	60
54.2530000000	55
54.2830000000	67
54.3130000000	72
54.3430000000	56
54.3730000000	68
54.4030000000	54
54.4330000000	56
54.4630000000	72
54.4930000000	75
54.5230000000	61
54.5530000000	66
54.5830000000	77
54.6130000000	76
54.6430000000	67
54.6730000000	73
54.7030000000	66
54.7330000000	62
54.7630000000	45
54.7930000000	63
54.8230000000	76
54.8530000000	41
54.8830000000	72
54.9130000000	65
54.9430000000	65
54.9730000000	67
55.0030000000	68
55.0330000000	56
55.0630000000	62
55.0930000000	57
55.1230000000	50
55.1530000000	52
55.1830000000	52
55.2130000000	61
55.2430000000	54
55.2730000000	53
55.3030000000	55
55.3330000000	65
55.3630000000	61
55.3930000000	67
55.4230000000	55
55.4530000000	63
55.4830000000	58
55.5130000000	45
55.5430000000	61
55.5730000000	58
55.6030000000	62
55.6330000000	60
55.6630000000	49
55.6930000000	66
55.7230000000	45
55.7530000000	65
55.7830000000	58
55.8130000000	60
55.8430000000	65
55.8730000000	73
55.9030000000	63
55.9330000000	61
55.9630000000	56
55.9930000000	47
56.0230000000	62
56.0530000000	59
56.0830000000	50
56.1130000000	53
56.1430000000	56
56.1730000000	55
56.2030000000	61
56.2330000000	55
56.2630000000	48
56.2930000000	55
56.3230000000	59
56.3530000000	68
56.3830000000	70
56.4130000000	53
56.4430000000	52
56.4730000000	52
56.5030000000	50
56.5330000000	68
56.5630000000	48
56.5930000000	48
56.6230000000	60
56.6530000000	68
56.6830000000	61
56.7130000000	50
56.7430000000	39
56.7730000000	53
56.8030000000	53
56.8330000000	54
56.8630000000	61
56.8930000000	53
56.9230000000	54
56.9530000000	53
56.9830000000	56
57.0130000000	56
57.0430000000	54
57.0730000000	59
57.1030000000	62
57.1330000000	70
57.1630000000	60
57.1930000000	51
57.2230000000	55
57.2530000000	50
57.2830000000	57
57.3130000000	69
57.3430000000	54
57.3730000000	47
57.4030000000	46
57.4330000000	50
57.4630000000	55
57.4930000000	54
57.5230000000	56
57.5530000000	56
57.5830000000	48
57.6130000000	50
57.6430000000	44
57.6730000000	47
57.7030000000	51
57.7330000000	56
57.7630000000	61
57.7930000000	57
57.8230000000	50
57.8530000000	50
57.8830000000	58
57.9130000000	63
57.9430000000	54
57.9730000000	41
58.0030000000	51
58.0330000000	49
58.0630000000	46
58.0930000000	55
58.1230000000	56
58.1530000000	58
58.1830000000	62
58.2130000000	48
58.2430000000	55
58.2730000000	65
58.3030000000	50
58.3330000000	54
58.3630000000	49
58.3930000000	52
58.4230000000	42
58.4530000000	69
58.4830000000	59
58.5130000000	53
58.5430000000	67
58.5730000000	68
58.6030000000	48
58.6330000000	55
58.6630000000	57
58.6930000000	51
58.7230000000	42
58.7530000000	48
58.7830000000	57
58.8130000000	58
58.8430000000	58
58.8730000000	60
58.9030000000	49
58.9330000000	55
58.9630000000	52
58.9930000000	43
59.0230000000	56
59.0530000000	53
59.0830000000	42
59.1130000000	55
59.1430000000	62
59.1730000000	50
59.2030000000	54
59.2330000000	61
59.2630000000	61
59.2930000000	52
59.3230000000	47
59.3530000000	42
59.3830000000	53
59.4130000000	56
59.4430000000	61
59.4730000000	50
59.5030000000	48
59.5330000000	57
59.5630000000	56
59.5930000000	55
59.6230000000	51
59.6530000000	56
59.6830000000	50
59.7130000000	57
59.7430000000	42
59.7730000000	66
59.8030000000	60
59.8330000000	40
59.8630000000	48
59.8930000000	28
59.9230000000	52
59.9530000000	46
59.9830000000	46
60.0130000000	45
60.0430000000	55
60.0730000000	59
60.1030000000	60
60.1330000000	55
60.1630000000	53
60.1930000000	58
60.2230000000	81
60.2530000000	62
60.2830000000	67
60.3130000000	86
60.3430000000	71
60.3730000000	71
60.4030000000	60
60.4330000000	68
60.4630000000	61
60.4930000000	46
60.5230000000	63
60.5530000000	55
60.5830000000	62
60.6130000000	41
60.6430000000	32
60.6730000000	52
60.7030000000	43
60.7330000000	51
60.7630000000	38
60.7930000000	56
60.8230000000	52
60.8530000000	50
60.8830000000	40
60.9130000000	50
60.9430000000	55
60.9730000000	39
61.0030000000	64
61.0330000000	64
61.0630000000	45
61.0930000000	42
61.1230000000	47
61.1530000000	52
61.1830000000	51
61.2130000000	50
61.2430000000	55
61.2730000000	47
61.3030000000	50
61.3330000000	44
61.3630000000	42
61.3930000000	52
61.4230000000	49
61.4530000000	44
61.4830000000	42
61.5130000000	48
61.5430000000	49
61.5730000000	43
61.6030000000	55
61.6330000000	48
61.6630000000	46
61.6930000000	51
61.7230000000	48
61.7530000000	46
61.7830000000	47
61.8130000000	42
61.8430000000	53
61.8730000000	51
61.9030000000	47
61.9330000000	50
61.9630000000	48
61.9930000000	50
62.0230000000	58
62.0530000000	54
62.0830000000	44
62.1130000000	54
62.1430000000	50
62.1730000000	61
62.2030000000	48
62.2330000000	44
62.2630000000	49
62.2930000000	34
62.3230000000	41
62.3530000000	47
62.3830000000	38
62.4130000000	37
62.4430000000	57
62.4730000000	54
62.5030000000	56
62.5330000000	38
62.5630000000	43
62.5930000000	43
62.6230000000	38
62.6530000000	50
62.6830000000	46
62.7130000000	43
62.7430000000	44
62.7730000000	47
62.8030000000	44
62.8330000000	49
62.8630000000	46
62.8930000000	45
62.9230000000	51
62.9530000000	45
62.9830000000	50
63.0130000000	51
63.0430000000	43
63.0730000000	42
63.1030000000	53
63.1330000000	57
63.1630000000	60
63.1930000000	55
63.2230000000	54
63.2530000000	52
63.2830000000	51
63.3130000000	59
63.3430000000	46
63.3730000000	45
63.4030000000	57
63.4330000000	36
63.4630000000	46
63.4930000000	48
63.5230000000	48
63.5530000000	54
63.5830000000	42
63.6130000000	48
63.6430000000	50
63.6730000000	60
63.7030000000	51
63.7330000000	53
63.7630000000	48
63.7930000000	37
63.8230000000	42
63.8530000000	44
63.8830000000	47
63.9130000000	52
63.9430000000	43
63.9730000000	52
64.0030000000	64
64.0330000000	41
64.0630000000	53
64.0930000000	58
64.1230000000	53
64.1530000000	54
64.1830000000	50
64.2130000000	44
64.2430000000	41
64.2730000000	42
64.3030000000	47
64.3330000000	47
64.3630000000	45
64.3930000000	55
64.4230000000	52
64.4530000000	56
64.4830000000	38
64.5130000000	46
64.5430000000	46
64.5730000000	42
64.6030000000	55
64.6330000000	35
64.6630000000	42
64.6930000000	37
64.7230000000	51
64.7530000000	39
64.7830000000	42
64.8130000000	45
64.8430000000	55
64.8730000000	36
64.9030000000	42
64.9330000000	62
64.9630000000	36
64.9930000000	61
65.0230000000	40
65.0530000000	40
65.0830000000	56
65.1130000000	27
65.1430000000	46
65.1730000000	51
65.2030000000	49
65.2330000000	47
65.2630000000	45
65.2930000000	49
65.3230000000	59
65.3530000000	44
65.3830000000	49
65.4130000000	41
65.4430000000	48
65.4730000000	41
65.5030000000	50
65.5330000000	56
65.5630000000	42
65.5930000000	56
65.6230000000	51
65.6530000000	53
65.6830000000	57
65.7130000000	38
65.7430000000	45
65.7730000000	41
65.8030000000	51
65.8330000000	43
65.8630000000	55
65.8930000000	46
65.9230000000	38
65.9530000000	48
65.9830000000	59
66.0130000000	47
66.0430000000	43
66.0730000000	50
66.1030000000	40
66.1330000000	53
66.1630000000	50
66.1930000000	58
66.2230000000	55
66.2530000000	43
66.2830000000	46
66.3130000000	46
66.3430000000	53
66.3730000000	49
66.4030000000	49
66.4330000000	54
66.4630000000	45
66.4930000000	51
66.5230000000	52
66.5530000000	47
66.5830000000	51
66.6130000000	53
66.6430000000	44
66.6730000000	41
66.7030000000	42
66.7330000000	49
66.7630000000	48
66.7930000000	40
66.8230000000	43
66.8530000000	46
66.8830000000	40
66.9130000000	53
66.9430000000	46
66.9730000000	54
67.0030000000	42
67.0330000000	62
67.0630000000	51
67.0930000000	47
67.1230000000	55
67.1530000000	49
67.1830000000	40
67.2130000000	50
67.2430000000	62
67.2730000000	33
67.3030000000	39
67.3330000000	47
67.3630000000	37
67.3930000000	42
67.4230000000	51
67.4530000000	50
67.4830000000	54
67.5130000000	46
67.5430000000	46
67.5730000000	46
67.6030000000	35
67.6330000000	47
67.6630000000	43
67.6930000000	38
67.7230000000	47
67.7530000000	40
67.7830000000	38
67.8130000000	46
67.8430000000	45
67.8730000000	48
67.9030000000	54
67.9330000000	31
67.9630000000	44
67.9930000000	50
68.0230000000	47
68.0530000000	58
68.0830000000	36
68.1130000000	43
68.1430000000	40
68.1730000000	27
68.2030000000	43
68.2330000000	43
68.2630000000	36
68.2930000000	63
68.3230000000	40
68.3530000000	45
68.3830000000	50
68.4130000000	45
68.4430000000	38
68.4730000000	53
68.5030000000	48
68.5330000000	34
68.5630000000	59
68.5930000000	54
68.6230000000	46
68.6530000000	52
68.6830000000	50
68.7130000000	50
68.7430000000	54
68.7730000000	45
68.8030000000	52
68.8330000000	41
68.8630000000	39
68.8930000000	51
68.9230000000	36
68.9530000000	38
68.9830000000	48
69.0130000000	44
69.0430000000	44
69.0730000000	42
69.1030000000	57
69.1330000000	36
69.1630000000	56
69.1930000000	60
69.2230000000	52
69.2530000000	44
69.2830000000	46
69.3130000000	50
69.3430000000	49
69.3730000000	54
69.4030000000	37
69.4330000000	50
69.4630000000	62
69.4930000000	37
69.5230000000	51
69.5530000000	46
69.5830000000	50
69.6130000000	47
69.6430000000	35
69.6730000000	39
69.7030000000	53
69.7330000000	45
69.7630000000	48
69.7930000000	44
69.8230000000	50
69.8530000000	50
69.8830000000	43
69.9130000000	50
69.9430000000	54
69.9730000000	45
70.0030000000	42
70.0330000000	49
70.0630000000	54
70.0930000000	41
70.1230000000	52
70.1530000000	46
70.1830000000	31
70.2130000000	55
70.2430000000	50
70.2730000000	58
70.3030000000	55
70.3330000000	55
70.3630000000	40
70.3930000000	40
70.4230000000	51
70.4530000000	48
70.4830000000	39
70.5130000000	56
70.5430000000	53
70.5730000000	41
70.6030000000	45
70.6330000000	39
70.6630000000	42
70.6930000000	44
70.7230000000	43
70.7530000000	46
70.7830000000	47
70.8130000000	50
70.8430000000	41
70.8730000000	52
70.9030000000	38
70.9330000000	54
70.9630000000	48
70.9930000000	50
71.0230000000	52
71.0530000000	37
71.0830000000	50
71.1130000000	52
71.1430000000	40
71.1730000000	61
71.2030000000	55
71.2330000000	45
71.2630000000	50
71.2930000000	48
71.3230000000	50
71.3530000000	40
71.3830000000	36
71.4130000000	33
71.4430000000	43
71.4730000000	45
71.5030000000	35
71.5330000000	55
71.5630000000	51
71.5930000000	59
71.6230000000	54
71.6530000000	57
71.6830000000	45
71.7130000000	41
71.7430000000	43
71.7730000000	47
71.8030000000	40
71.8330000000	47
71.8630000000	49
71.8930000000	60
71.9230000000	43
71.9530000000	43
71.9830000000	51
72.0130000000	49
72.0430000000	56
72.0730000000	52
72.1030000000	44
72.1330000000	33
72.1630000000	49
72.1930000000	42
72.2230000000	52
72.2530000000	45
72.2830000000	46
72.3130000000	40
72.3430000000	40
72.3730000000	36
72.4030000000	42
72.4330000000	36
72.4630000000	45
72.4930000000	36
72.5230000000	45
72.5530000000	36
72.5830000000	30
72.6130000000	48
72.6430000000	51
72.6730000000	59
72.7030000000	31
72.7330000000	48
72.7630000000	51
72.7930000000	39
72.8230000000	59
72.8530000000	45
72.8830000000	38
72.9130000000	54
72.9430000000	39
72.9730000000	41
73.0030000000	30
73.0330000000	50
73.0630000000	48
73.0930000000	48
73.1230000000	47
73.1530000000	46
73.1830000000	56
73.2130000000	32
73.2430000000	49
73.2730000000	48
73.3030000000	40
73.3330000000	42
73.3630000000	48
73.3930000000	43
73.4230000000	42
73.4530000000	53
73.4830000000	36
73.5130000000	47
73.5430000000	57
73.5730000000	53
73.6030000000	45
73.6330000000	36
73.6630000000	35
73.6930000000	45
73.7230000000	51
73.7530000000	44
73.7830000000	44
73.8130000000	45
73.8430000000	35
73.8730000000	49
73.9030000000	44
73.9330000000	42
73.9630000000	43
73.9930000000	48
74.0230000000	48
74.0530000000	33
74.0830000000	32
74.1130000000	40
74.1430000000	51
74.1730000000	47
74.2030000000	44
74.2330000000	47
74.2630000000	58
74.2930000000	45
74.3230000000	36
74.3530000000	54
74.3830000000	48
74.4130000000	40
74.4430000000	43
74.4730000000	45
74.5030000000	49
74.5330000000	44
74.5630000000	46
74.5930000000	44
74.6230000000	59
74.6530000000	47
74.6830000000	41
74.7130000000	46
74.7430000000	45
74.7730000000	45
74.8030000000	43
74.8330000000	38
74.8630000000	45
74.8930000000	46
74.9230000000	45
74.9530000000	42
74.9830000000	47
75.0130000000	38
75.0430000000	51
75.0730000000	41
75.1030000000	51
75.1330000000	43
75.1630000000	52
75.1930000000	47
75.2230000000	40
75.2530000000	40
75.2830000000	46
75.3130000000	56
75.3430000000	47
75.3730000000	43
75.4030000000	36
75.4330000000	35
75.4630000000	51
75.4930000000	34
75.5230000000	40
75.5530000000	45
75.5830000000	45
75.6130000000	49
75.6430000000	52
75.6730000000	40
75.7030000000	37
75.7330000000	54
75.7630000000	60
75.7930000000	40
75.8230000000	56
75.8530000000	55
75.8830000000	52
75.9130000000	58
75.9430000000	50
75.9730000000	58
76.0030000000	58
76.0330000000	54
76.0630000000	57
76.0930000000	62
76.1230000000	58
76.1530000000	48
76.1830000000	58
76.2130000000	58
76.2430000000	52
76.2730000000	56
76.3030000000	40
76.3330000000	35
76.3630000000	63
76.3930000000	55
76.4230000000	46
76.4530000000	51
76.4830000000	45
76.5130000000	49
76.5430000000	33
76.5730000000	30
76.6030000000	42
76.6330000000	41
76.6630000000	38
76.6930000000	52
76.7230000000	41
76.7530000000	45
76.7830000000	46
76.8130000000	44
76.8430000000	39
76.8730000000	44
76.9030000000	46
76.9330000000	38
76.9630000000	43
76.9930000000	32
77.0230000000	67
77.0530000000	41
77.0830000000	36
77.1130000000	48
77.1430000000	49
77.1730000000	60
77.2030000000	33
77.2330000000	42
77.2630000000	39
77.2930000000	32
77.3230000000	36
77.3530000000	43
77.3830000000	47
77.4130000000	46
77.4430000000	49
77.4730000000	53
77.5030000000	42
77.5330000000	41
77.5630000000	43
77.5930000000	57
77.6230000000	48
77.6530000000	37
77.6830000000	38
77.7130000000	48
77.7430000000	36
77.7730000000	37
77.8030000000	48
77.8330000000	51
77.8630000000	32
77.8930000000	43
77.9230000000	43
77.9530000000	43
77.9830000000	42
78.0130000000	42
78.0430000000	36
78.0730000000	34
78.1030000000	39
78.1330000000	50
78.1630000000	36
78.1930000000	39
78.2230000000	37
78.2530000000	41
78.2830000000	40
78.3130000000	41
78.3430000000	44
78.3730000000	37
78.4030000000	40
78.4330000000	31
78.4630000000	42
78.4930000000	37
78.5230000000	49
78.5530000000	40
78.5830000000	35
78.6130000000	36
78.6430000000	38
78.6730000000	55
78.7030000000	49
78.7330000000	60
78.7630000000	50
78.7930000000	40
78.8230000000	37
78.8530000000	50
78.8830000000	50
78.9130000000	47
78.9430000000	40
78.9730000000	39
79.0030000000	47
79.0330000000	42
79.0630000000	43
79.0930000000	40
79.1230000000	38
79.1530000000	35
79.1830000000	39
79.2130000000	46
79.2430000000	34
79.2730000000	59
79.3030000000	41
79.3330000000	40
79.3630000000	46
79.3930000000	45
79.4230000000	42
79.4530000000	53
79.4830000000	34
79.5130000000	47
79.5430000000	47
79.5730000000	34
79.6030000000	32
79.6330000000	35
79.6630000000	38
79.6930000000	42
79.7230000000	38
79.7530000000	39
79.7830000000	44
79.8130000000	45
79.8430000000	48
79.8730000000	46
79.9030000000	43
79.9330000000	55
79.9630000000	48
79.9930000000	36
80.0230000000	41
80.0530000000	43
80.0830000000	37
80.1130000000	45
80.1430000000	35
80.1730000000	41
80.2030000000	39
80.2330000000	37
80.2630000000	32
80.2930000000	44
80.3230000000	49
80.3530000000	43
80.3830000000	35
80.4130000000	42
80.4430000000	42
80.4730000000	35
80.5030000000	45
80.5330000000	42
80.5630000000	48
80.5930000000	42
80.6230000000	41
80.6530000000	46
80.6830000000	38
80.7130000000	38
80.7430000000	38
80.7730000000	45
80.8030000000	47
80.8330000000	61
80.8630000000	50
80.8930000000	61
80.9230000000	49
80.9530000000	53
80.9830000000	45
81.0130000000	40
81.0430000000	51
81.0730000000	51
81.1030000000	37
81.1330000000	49
81.1630000000	39
81.1930000000	38
81.2230000000	43
81.2530000000	38
81.2830000000	32
81.3130000000	49
81.3430000000	42
81.3730000000	42
81.4030000000	42
81.4330000000	36
81.4630000000	34
81.4930000000	51
81.5230000000	47
81.5530000000	30
81.5830000000	43
81.6130000000	41
81.6430000000	25
81.6730000000	35
81.7030000000	32
81.7330000000	40
81.7630000000	45
81.7930000000	35
81.8230000000	48
81.8530000000	46
81.8830000000	31
81.9130000000	51
81.9430000000	32
81.9730000000	36
82.0030000000	38
82.0330000000	29
82.0630000000	38
82.0930000000	47
82.1230000000	38
82.1530000000	42
82.1830000000	29
82.2130000000	44
82.2430000000	49
82.2730000000	39
82.3030000000	33
82.3330000000	39
82.3630000000	29
82.3930000000	35
82.4230000000	42
82.4530000000	51
82.4830000000	42
82.5130000000	42
82.5430000000	41
82.5730000000	46
82.6030000000	42
82.6330000000	22
82.6630000000	48
82.6930000000	42
82.7230000000	40
82.7530000000	39
82.7830000000	40
82.8130000000	36
82.8430000000	35
82.8730000000	45
82.9030000000	32
82.9330000000	38
82.9630000000	39
82.9930000000	38
83.0230000000	45
83.0530000000	46
83.0830000000	34
83.1130000000	38
83.1430000000	42
83.1730000000	35
83.2030000000	36
83.2330000000	39
83.2630000000	41
83.2930000000	34
83.3230000000	47
83.3530000000	42
83.3830000000	36
83.4130000000	45
83.4430000000	42
83.4730000000	40
83.5030000000	32
83.5330000000	38
83.5630000000	43
83.5930000000	40
83.6230000000	43
83.6530000000	40
83.6830000000	34
83.7130000000	41
83.7430000000	36
83.7730000000	37
83.8030000000	38
83.8330000000	43
83.8630000000	44
83.8930000000	31
83.9230000000	30
83.9530000000	38
83.9830000000	43
84.0130000000	37
84.0430000000	35
84.0730000000	31
84.1030000000	39
84.1330000000	44
84.1630000000	37
84.1930000000	48
84.2230000000	43
84.2530000000	44
84.2830000000	38
84.3130000000	45
84.3430000000	49
84.3730000000	45
84.4030000000	40
84.4330000000	31
84.4630000000	45
84.4930000000	45
84.5230000000	42
84.5530000000	33
84.5830000000	39
84.6130000000	40
84.6430000000	41
84.6730000000	40
84.7030000000	43
84.7330000000	39
84.7630000000	45
84.7930000000	41
84.8230000000	47
84.8530000000	44
84.8830000000	37
84.9130000000	44
84.9430000000	34
84.9730000000	43
85.0030000000	41
85.0330000000	48
85.0630000000	41
85.0930000000	37
85.1230000000	34
85.1530000000	35
85.1830000000	40
85.2130000000	38
85.2430000000	43
85.2730000000	35
85.3030000000	32
85.3330000000	30
85.3630000000	37
85.3930000000	43
85.4230000000	32
85.4530000000	37
85.4830000000	54
85.5130000000	40
85.5430000000	32
85.5730000000	32
85.6030000000	38
85.6330000000	36
85.6630000000	40
85.6930000000	39
85.7230000000	39
85.7530000000	32
85.7830000000	41
85.8130000000	41
85.8430000000	39
85.8730000000	47
85.9030000000	42
85.9330000000	45
85.9630000000	36
85.9930000000	52
86.0230000000	29
86.0530000000	47
86.0830000000	36
86.1130000000	39
86.1430000000	35
86.1730000000	50
86.2030000000	36
86.2330000000	32
86.2630000000	46
86.2930000000	44
86.3230000000	32
86.3530000000	34
86.3830000000	33
86.4130000000	35
86.4430000000	42
86.4730000000	46
86.5030000000	41
86.5330000000	41
86.5630000000	32
86.5930000000	39
86.6230000000	41
86.6530000000	48
86.6830000000	35
86.7130000000	44
86.7430000000	38
86.7730000000	44
86.8030000000	49
86.8330000000	45
86.8630000000	44
86.8930000000	38
86.9230000000	47
86.9530000000	48
86.9830000000	36
87.0130000000	30
87.0430000000	39
87.0730000000	46
87.1030000000	44
87.1330000000	41
87.1630000000	41
87.1930000000	38
87.2230000000	37
87.2530000000	36
87.2830000000	37
87.3130000000	45
87.3430000000	31
87.3730000000	34
87.4030000000	38
87.4330000000	33
87.4630000000	40
87.4930000000	38
87.5230000000	55
87.5530000000	38
87.5830000000	42
87.6130000000	45
87.6430000000	28
87.6730000000	53
87.7030000000	38
87.7330000000	37
87.7630000000	54
87.7930000000	37
87.8230000000	43
87.8530000000	27
87.8830000000	31
87.9130000000	40
87.9430000000	46
87.9730000000	36
88.0030000000	46
88.0330000000	33
88.0630000000	34
88.0930000000	45
88.1230000000	43
88.1530000000	33
88.1830000000	42
88.2130000000	39
88.2430000000	40
88.2730000000	44
88.3030000000	38
88.3330000000	37
88.3630000000	51
88.3930000000	38
88.4230000000	38
88.4530000000	45
88.4830000000	33
88.5130000000	37
88.5430000000	45
88.5730000000	48
88.6030000000	43
88.6330000000	32
88.6630000000	38
88.6930000000	41
88.7230000000	38
88.7530000000	38
88.7830000000	49
88.8130000000	37
88.8430000000	45
88.8730000000	36
88.9030000000	34
88.9330000000	39
88.9630000000	36
88.9930000000	34
89.0230000000	37
89.0530000000	40
89.0830000000	40
89.1130000000	47
89.1430000000	44
89.1730000000	44
89.2030000000	43
89.2330000000	48
89.2630000000	54
89.2930000000	32
89.3230000000	35
89.3530000000	39
89.3830000000	36
89.4130000000	44
89.4430000000	42
89.4730000000	43
89.5030000000	41
89.5330000000	43
89.5630000000	34
89.5930000000	47
89.6230000000	47
89.6530000000	35
89.6830000000	44
89.7130000000	52
89.7430000000	41
89.7730000000	44
89.8030000000	46
89.8330000000	38
89.8630000000	36
89.8930000000	34
89.9230000000	47
89.9530000000	29
89.9830000000	35
90.0130000000	44
90.0430000000	48
90.0730000000	38
90.1030000000	40
90.1330000000	40
90.1630000000	37
90.1930000000	48
90.2230000000	35
90.2530000000	42
90.2830000000	45
90.3130000000	39
90.3430000000	55
90.3730000000	43
90.4030000000	36
90.4330000000	41
90.4630000000	33
90.4930000000	42
90.5230000000	56
90.5530000000	49
90.5830000000	47
90.6130000000	43
90.6430000000	33
90.6730000000	45
90.7030000000	42
90.7330000000	35
90.7630000000	42
90.7930000000	46
90.8230000000	34
90.8530000000	41
90.8830000000	44
90.9130000000	25
90.9430000000	43
90.9730000000	43
91.0030000000	32
91.0330000000	37
91.0630000000	38
91.0930000000	33
91.1230000000	37
91.1530000000	40
91.1830000000	26
91.2130000000	41
91.2430000000	36
91.2730000000	36
91.3030000000	48
91.3330000000	40
91.3630000000	29
91.3930000000	39
91.4230000000	35
91.4530000000	45
91.4830000000	37
91.5130000000	37
91.5430000000	28
91.5730000000	29
91.6030000000	42
91.6330000000	47
91.6630000000	42
91.6930000000	34
91.7230000000	42
91.7530000000	43
91.7830000000	42
91.8130000000	49
91.8430000000	36
91.8730000000	44
91.9030000000	41
91.9330000000	37
91.9630000000	39
91.9930000000	40
92.0230000000	36
92.0530000000	53
92.0830000000	51
92.1130000000	57
92.1430000000	40
92.1730000000	41
92.2030000000	36
92.2330000000	44
92.2630000000	49
92.2930000000	48
92.3230000000	42
92.3530000000	41
92.3830000000	38
92.4130000000	44
92.4430000000	40
92.4730000000	45
92.5030000000	42
92.5330000000	40
92.5630000000	29
92.5930000000	33
92.6230000000	29
92.6530000000	34
92.6830000000	42
92.7130000000	30
92.7430000000	45
92.7730000000	37
92.8030000000	42
92.8330000000	43
92.8630000000	35
92.8930000000	41
92.9230000000	44
92.9530000000	55
92.9830000000	38
93.0130000000	36
93.0430000000	41
93.0730000000	30
93.1030000000	31
93.1330000000	51
93.1630000000	52
93.1930000000	39
93.2230000000	35
93.2530000000	39
93.2830000000	44
93.3130000000	42
93.3430000000	39
93.3730000000	41
93.4030000000	39
93.4330000000	40
93.4630000000	45
93.4930000000	37
93.5230000000	44
93.5530000000	30
93.5830000000	37
93.6130000000	38
93.6430000000	35
93.6730000000	44
93.7030000000	49
93.7330000000	52
93.7630000000	54
93.7930000000	41
93.8230000000	44
93.8530000000	46
93.8830000000	40
93.9130000000	48
93.9430000000	40
93.9730000000	48
94.0030000000	37
94.0330000000	53
94.0630000000	53
94.0930000000	49
94.1230000000	32
94.1530000000	45
94.1830000000	48
94.2130000000	42
94.2430000000	40
94.2730000000	44
94.3030000000	26
94.3330000000	41
94.3630000000	45
94.3930000000	44
94.4230000000	44
94.4530000000	50
94.4830000000	42
94.5130000000	37
94.5430000000	36
94.5730000000	36
94.6030000000	38
94.6330000000	45
94.6630000000	43
94.6930000000	37
94.7230000000	41
94.7530000000	42
94.7830000000	39
94.8130000000	41
94.8430000000	40
94.8730000000	41
94.9030000000	54
94.9330000000	52
94.9630000000	41
94.9930000000	45
95.0230000000	46
95.0530000000	55
95.0830000000	35
95.1130000000	33
95.1430000000	44
95.1730000000	44
95.2030000000	45
95.2330000000	46
95.2630000000	56
95.2930000000	43
95.3230000000	32
95.3530000000	36
95.3830000000	47
95.4130000000	60
95.4430000000	43
95.4730000000	40
95.5030000000	29
95.5330000000	36
95.5630000000	47
95.5930000000	40
95.6230000000	42
95.6530000000	36
95.6830000000	49
95.7130000000	47
95.7430000000	35
95.7730000000	34
95.8030000000	57
95.8330000000	37
95.8630000000	45
95.8930000000	44
95.9230000000	40
95.9530000000	36
95.9830000000	27
96.0130000000	42
96.0430000000	40
96.0730000000	35
96.1030000000	50
96.1330000000	43
96.1630000000	36
96.1930000000	36
96.2230000000	36
96.2530000000	48
96.2830000000	43
96.3130000000	34
96.3430000000	42
96.3730000000	43
96.4030000000	36
96.4330000000	47
96.4630000000	33
96.4930000000	42
96.5230000000	36
96.5530000000	43
96.5830000000	41
96.6130000000	38
96.6430000000	51
96.6730000000	42
96.7030000000	45
96.7330000000	31
96.7630000000	50
96.7930000000	35
96.8230000000	51
96.8530000000	39
96.8830000000	37
96.9130000000	43
96.9430000000	27
96.9730000000	40
97.0030000000	34
97.0330000000	42
97.0630000000	43
97.0930000000	31
97.1230000000	46
97.1530000000	38
97.1830000000	46
97.2130000000	47
97.2430000000	47
97.2730000000	50
97.3030000000	38
97.3330000000	49
97.3630000000	50
97.3930000000	44
97.4230000000	40
97.4530000000	32
97.4830000000	35
97.5130000000	37
97.5430000000	40
97.5730000000	39
97.6030000000	38
97.6330000000	45
97.6630000000	38
97.6930000000	31
97.7230000000	37
97.7530000000	45
97.7830000000	37
97.8130000000	43
97.8430000000	41
97.8730000000	46
97.9030000000	38
97.9330000000	33
97.9630000000	40
97.9930000000	25
98.0230000000	36
98.0530000000	36
98.0830000000	48
98.1130000000	47
98.1430000000	33
98.1730000000	49
98.2030000000	48
98.2330000000	38
98.2630000000	33
98.2930000000	37
98.3230000000	29
98.3530000000	46
98.3830000000	42
98.4130000000	42
98.4430000000	44
98.4730000000	34
98.5030000000	44
98.5330000000	43
98.5630000000	43
98.5930000000	42
98.6230000000	41
98.6530000000	42
98.6830000000	45
98.7130000000	35
98.7430000000	42
98.7730000000	46
98.8030000000	43
98.8330000000	41
98.8630000000	27
98.8930000000	47
98.9230000000	52
98.9530000000	29
98.9830000000	51
99.0130000000	48
99.0430000000	47
99.0730000000	55
99.1030000000	46
99.1330000000	45
99.1630000000	32
99.1930000000	40
99.2230000000	32
99.2530000000	44
99.2830000000	41
99.3130000000	32
99.3430000000	53
99.3730000000	43
99.4030000000	31
99.4330000000	48
99.4630000000	39
99.4930000000	44
99.5230000000	38
99.5530000000	36
99.5830000000	33
99.6130000000	41
99.6430000000	47
99.6730000000	57
99.7030000000	34
99.7330000000	34
99.7630000000	43
99.7930000000	48
99.8230000000	36
99.8530000000	36
99.8830000000	39
99.9130000000	47
99.9430000000	39
99.9730000000	48
100.0030000000	43
100.0330000000	31
100.0630000000	31
100.0930000000	39
100.1230000000	40
100.1530000000	38
100.1830000000	36
100.2130000000	41
100.2430000000	58
100.2730000000	44
100.3030000000	37
100.3330000000	37
100.3630000000	40
100.3930000000	42
100.4230000000	37
100.4530000000	43
100.4830000000	33
100.5130000000	44
100.5430000000	38
100.5730000000	47
100.6030000000	39
100.6330000000	45
100.6630000000	37
100.6930000000	47
100.7230000000	51
100.7530000000	31
100.7830000000	37
100.8130000000	33
100.8430000000	50
100.8730000000	32
100.9030000000	36
100.9330000000	51
100.9630000000	47
100.9930000000	50
101.0230000000	50
101.0530000000	31
101.0830000000	43
101.1130000000	41
101.1430000000	46
101.1730000000	33
101.2030000000	35
101.2330000000	50
101.2630000000	34
101.2930000000	38
101.3230000000	37
101.3530000000	42
101.3830000000	35
101.4130000000	31
101.4430000000	38
101.4730000000	44
101.5030000000	40
101.5330000000	38
101.5630000000	39
101.5930000000	31
101.6230000000	31
101.6530000000	41
101.6830000000	44
101.7130000000	39
101.7430000000	38
101.7730000000	39
101.8030000000	28
101.8330000000	39
101.8630000000	32
101.8930000000	31
101.9230000000	32
101.9530000000	37
101.9830000000	35
102.0130000000	42
102.0430000000	33
102.0730000000	37
102.1030000000	37
102.1330000000	36
102.1630000000	40
102.1930000000	36
102.2230000000	51
102.2530000000	46
102.2830000000	46
102.3130000000	39
102.3430000000	36
102.3730000000	32
102.4030000000	47
102.4330000000	46
102.4630000000	44
102.4930000000	44
102.5230000000	38
102.5530000000	37
102.5830000000	32
102.6130000000	33
102.6430000000	37
102.6730000000	45
102.7030000000	35
102.7330000000	40
102.7630000000	34
102.7930000000	30
102.8230000000	38
102.8530000000	42
102.8830000000	35
102.9130000000	33
102.9430000000	39
102.9730000000	36
103.0030000000	47
103.0330000000	45
103.0630000000	35
103.0930000000	35
103.1230000000	43
103.1530000000	38
103.1830000000	44
103.2130000000	40
103.2430000000	35
103.2730000000	43
103.3030000000	40
103.3330000000	36
103.3630000000	37
103.3930000000	35
103.4230000000	46
103.4530000000	34
103.4830000000	35
103.5130000000	41
103.5430000000	27
103.5730000000	51
103.6030000000	40
103.6330000000	34
103.6630000000	40
103.6930000000	38
103.7230000000	41
103.7530000000	42
103.7830000000	35
103.8130000000	42
103.8430000000	39
103.8730000000	44
103.9030000000	38
103.9330000000	48
103.9630000000	35
103.9930000000	46
104.0230000000	51
104.0530000000	40
104.0830000000	35
104.1130000000	32
104.1430000000	29
104.1730000000	53
104.2030000000	39
104.2330000000	42
104.2630000000	44
104.2930000000	44
104.3230000000	20
104.3530000000	23
104.3830000000	38
104.4130000000	41
104.4430000000	48
104.4730000000	40
104.5030000000	37
104.5330000000	55
104.5630000000	46
104.5930000000	38
104.6230000000	33
104.6530000000	27
104.6830000000	48
104.7130000000	41
104.7430000000	37
104.7730000000	35
104.8030000000	43
104.8330000000	40
104.8630000000	48
104.8930000000	43
104.9230000000	30
104.9530000000	27
104.9830000000	32
105.0130000000	44
105.0430000000	36
105.0730000000	32
105.1030000000	37
105.1330000000	37
105.1630000000	45
105.1930000000	50
105.2230000000	44
105.2530000000	49
105.2830000000	43
105.3130000000	41
105.3430000000	39
105.3730000000	41
105.4030000000	53
105.4330000000	36
105.4630000000	35
105.4930000000	32
105.5230000000	33
105.5530000000	32
105.5830000000	32
105.6130000000	32
105.6430000000	47
105.6730000000	41
105.7030000000	44
105.7330000000	41
105.7630000000	30
105.7930000000	27
105.8230000000	37
105.8530000000	36
105.8830000000	28
105.9130000000	40
105.9430000000	46
105.9730000000	29
106.0030000000	39
106.0330000000	28
106.0630000000	50
106.0930000000	29
106.1230000000	33
106.1530000000	36
106.1830000000	30
106.2130000000	38
106.2430000000	46
106.2730000000	46
106.3030000000	41
106.3330000000	45
106.3630000000	30
106.3930000000	33
106.4230000000	41
106.4530000000	28
106.4830000000	35
106.5130000000	39
106.5430000000	41
106.5730000000	42
106.6030000000	30
106.6330000000	33
106.6630000000	41
106.6930000000	37
106.7230000000	33
106.7530000000	41
106.7830000000	39
106.8130000000	52
106.8430000000	39
106.8730000000	41
106.9030000000	31
106.9330000000	46
106.9630000000	45
106.9930000000	37
107.0230000000	38
107.0530000000	45
107.0830000000	37
107.1130000000	41
107.1430000000	43
107.1730000000	40
107.2030000000	46
107.2330000000	32
107.2630000000	32
107.2930000000	43
107.3230000000	43
107.3530000000	41
107.3830000000	32
107.4130000000	33
107.4430000000	32
107.4730000000	34
107.5030000000	33
107.5330000000	36
107.5630000000	40
107.5930000000	38
107.6230000000	36
107.6530000000	46
107.6830000000	40
107.7130000000	35
107.7430000000	37
107.7730000000	36
107.8030000000	33
107.8330000000	35
107.8630000000	44
107.8930000000	38
107.9230000000	32
107.9530000000	42
107.9830000000	39
108.0130000000	29
108.0430000000	44
108.0730000000	33
108.1030000000	29
108.1330000000	49
108.1630000000	35
108.1930000000	28
108.2230000000	36
108.2530000000	33
108.2830000000	32
108.3130000000	45
108.3430000000	35
108.3730000000	33
108.4030000000	50
108.4330000000	40
108.4630000000	40
108.4930000000	44
108.5230000000	36
108.5530000000	39
108.5830000000	34
108.6130000000	39
108.6430000000	47
108.6730000000	33
108.7030000000	32
108.7330000000	37
108.7630000000	39
108.7930000000	33
108.8230000000	43
108.8530000000	37
108.8830000000	34
108.9130000000	53
108.9430000000	36
108.9730000000	35
109.0030000000	38
109.0330000000	29
109.0630000000	35
109.0930000000	46
109.1230000000	35
109.1530000000	32
109.1830000000	32
109.2130000000	34
109.2430000000	40
109.2730000000	37
109.3030000000	41
109.3330000000	45
109.3630000000	36
109.3930000000	35
109.4230000000	29
109.4530000000	35
109.4830000000	36
109.5130000000	32
109.5430000000	39
109.5730000000	46
109.6030000000	31
109.6330000000	37
109.6630000000	36
109.6930000000	45
109.7230000000	37
109.7530000000	44
109.7830000000	31
109.8130000000	30
109.8430000000	32
109.8730000000	42
109.9030000000	49
109.9330000000	41
109.9630000000	39
109.9930000000	37
110.0230000000	40
110.0530000000	37
110.0830000000	36
110.1130000000	40
110.1430000000	41
110.1730000000	43
110.2030000000	31
110.2330000000	43
110.2630000000	40
110.2930000000	47
110.3230000000	43
110.3530000000	50
110.3830000000	40
110.4130000000	41
110.4430000000	35
110.4730000000	34
110.5030000000	32
110.5330000000	41
110.5630000000	38
110.5930000000	30
110.6230000000	48
110.6530000000	38
110.6830000000	34
110.7130000000	41
110.7430000000	42
110.7730000000	43
110.8030000000	49
110.8330000000	31
110.8630000000	31
110.8930000000	40
110.9230000000	42
110.9530000000	40
110.9830000000	35
111.0130000000	38
111.0430000000	41
111.0730000000	32
111.1030000000	30
111.1330000000	34
111.1630000000	29
111.1930000000	35
111.2230000000	47
111.2530000000	47
111.2830000000	44
111.3130000000	35
111.3430000000	49
111.3730000000	37
111.4030000000	24
111.4330000000	45
111.4630000000	38
111.4930000000	42
111.5230000000	33
111.5530000000	47
111.5830000000	32
111.6130000000	45
111.6430000000	45
111.6730000000	42
111.7030000000	48
111.7330000000	46
111.7630000000	30
111.7930000000	42
111.8230000000	54
111.8530000000	40
111.8830000000	36
111.9130000000	45
111.9430000000	31
111.9730000000	38
112.0030000000	41
112.0330000000	35
112.0630000000	44
112.0930000000	34
112.1230000000	34
112.1530000000	32
112.1830000000	42
112.2130000000	48
112.2430000000	47
112.2730000000	50
112.3030000000	38
112.3330000000	54
112.3630000000	38
112.3930000000	42
112.4230000000	44
112.4530000000	44
112.4830000000	42
112.5130000000	46
112.5430000000	39
112.5730000000	31
112.6030000000	35
112.6330000000	40
112.6630000000	39
112.6930000000	33
112.7230000000	35
112.7530000000	42
112.7830000000	46
112.8130000000	42
112.8430000000	31
112.8730000000	39
112.9030000000	42
112.9330000000	43
112.9630000000	43
112.9930000000	39
113.0230000000	49
113.0530000000	36
113.0830000000	43
113.1130000000	35
113.1430000000	33
113.1730000000	42
113.2030000000	40
113.2330000000	33
113.2630000000	29
113.2930000000	40
113.3230000000	43
113.3530000000	49
113.3830000000	53
113.4130000000	44
113.4430000000	37
113.4730000000	48
113.5030000000	43
113.5330000000	36
113.5630000000	35
113.5930000000	39
113.6230000000	42
113.6530000000	45
113.6830000000	34
113.7130000000	43
113.7430000000	34
113.7730000000	49
113.8030000000	44
113.8330000000	34
113.8630000000	36
113.8930000000	43
113.9230000000	43
113.9530000000	40
113.9830000000	39
114.0130000000	36
114.0430000000	41
114.0730000000	43
114.1030000000	41
114.1330000000	42
114.1630000000	44
114.1930000000	51
114.2230000000	50
114.2530000000	37
114.2830000000	33
114.3130000000	42
114.3430000000	29
114.3730000000	30
114.4030000000	38
114.4330000000	39
114.4630000000	1
114.4930000000	1
114.5230000000	1
114.5530000000	1
114.5830000000	1
