0.3130000000	1
0.3430000000	1
0.3730000000	2
0.4030000000	1
0.4330000000	1
0.4630000000	1
0.4930000000	1
0.5230000000	1
0.5530000000	1
0.5830000000	1
0.6130000000	1
0.6430000000	1
0.6730000000	1
0.7030000000	1
0.7330000000	1
0.7630000000	1
0.7930000000	1
0.8230000000	1
0.8530000000	1
0.8830000000	1
0.9130000000	1
0.9430000000	1
0.9730000000	1
1.0030000000	1
1.0330000000	1
1.0630000000	1
1.0930000000	1
1.1230000000	2
1.1530000000	1
1.1830000000	1
1.2130000000	1
1.2430000000	1
1.2730000000	1
1.3030000000	1
1.3330000000	1
1.3630000000	1
1.3930000000	1
1.4230000000	1
1.4530000000	1
1.4830000000	2
1.5130000000	1
1.5430000000	1
1.5730000000	2
1.6030000000	1
1.6330000000	1
1.6630000000	2
1.6930000000	3
1.7230000000	1
1.7530000000	2
1.7830000000	1
1.8130000000	1
1.8430000000	1
1.8730000000	1
1.9030000000	1
1.9330000000	2
1.9630000000	2
1.9930000000	1
2.0230000000	1
2.0530000000	1
2.0830000000	2
2.1130000000	1
2.1430000000	1
2.1730000000	1
2.2030000000	2
2.2330000000	2
2.2630000000	1
2.2930000000	1
2.3230000000	1
2.3530000000	1
2.3830000000	2
2.4130000000	2
2.4430000000	1
2.4730000000	1
2.5030000000	3
2.5330000000	3
2.5630000000	2
2.5930000000	1
2.6230000000	1
2.6530000000	1
2.6830000000	2
2.7130000000	3
2.7430000000	2
2.7730000000	1
2.8030000000	3
2.8330000000	1
2.8630000000	1
2.8930000000	2
2.9230000000	3
2.9530000000	1
2.9830000000	1
3.0130000000	2
3.0430000000	1
3.0730000000	1
3.1030000000	1
3.1330000000	2
3.1630000000	4
3.1930000000	4
3.2230000000	2
3.2530000000	1
3.2830000000	3
3.3130000000	3
3.3430000000	1
3.3730000000	2
3.4030000000	4
3.4330000000	5
3.4630000000	2
3.4930000000	4
3.5230000000	3
3.5530000000	2
3.5830000000	1
3.6130000000	2
3.6430000000	2
3.6730000000	3
3.7030000000	1
3.7330000000	3
3.7630000000	1
3.7930000000	4
3.8230000000	2
3.8530000000	2
3.8830000000	1
3.9130000000	4
3.9430000000	2
3.9730000000	3
4.0030000000	2
4.0330000000	4
4.0630000000	3
4.0930000000	1
4.1230000000	4
4.1530000000	3
4.1830000000	6
4.2130000000	4
4.2430000000	3
4.2730000000	3
4.3030000000	3
4.3330000000	2
4.3630000000	4
4.3930000000	4
4.4230000000	9
4.4530000000	10
4.4830000000	9
4.5130000000	25
4.5430000000	34
4.5730000000	46
4.6030000000	64
4.6330000000	107
4.6630000000	113
4.6930000000	116
4.7230000000	127
4.7530000000	124
4.7830000000	137
4.8130000000	143
4.8430000000	125
4.8730000000	132
4.9030000000	121
4.9330000000	127
4.9630000000	153
4.9930000000	144
5.0230000000	136
5.0530000000	151
5.0830000000	137
5.1130000000	137
5.1430000000	148
5.1730000000	159
5.2030000000	128
5.2330000000	139
5.2630000000	154
5.2930000000	155
5.3230000000	129
5.3530000000	140
5.3830000000	122
5.4130000000	117
5.4430000000	143
5.4730000000	143
5.5030000000	145
5.5330000000	134
5.5630000000	134
5.5930000000	163
5.6230000000	140
5.6530000000	156
5.6830000000	144
5.7130000000	145
5.7430000000	159
5.7730000000	159
5.8030000000	126
5.8330000000	143
5.8630000000	132
5.8930000000	141
5.9230000000	143
5.9530000000	156
5.9830000000	170
6.0130000000	164
6.0430000000	161
6.0730000000	149
6.1030000000	136
6.1330000000	132
6.1630000000	150
6.1930000000	147
6.2230000000	147
6.2530000000	146
6.2830000000	149
6.3130000000	153
6.3430000000	150
6.3730000000	147
6.4030000000	175
6.4330000000	148
6.4630000000	129
6.4930000000	137
6.5230000000	157
6.5530000000	151
6.5830000000	160
6.6130000000	151
6.6430000000	140
6.6730000000	146
6.7030000000	135
6.7330000000	134
6.7630000000	150
6.7930000000	135
6.8230000000	127
6.8530000000	157
6.8830000000	162
6.9130000000	142
6.9430000000	140
6.9730000000	124
7.0030000000	127
7.0330000000	124
7.0630000000	145
7.0930000000	151
7.1230000000	154
7.1530000000	138
7.1830000000	138
7.2130000000	137
7.2430000000	142
7.2730000000	148
7.3030000000	158
7.3330000000	172
7.3630000000	133
7.3930000000	133
7.4230000000	146
7.4530000000	167
7.4830000000	156
7.5130000000	142
7.5430000000	137
7.5730000000	144
7.6030000000	157
7.6330000000	156
7.6630000000	140
7.6930000000	139
7.7230000000	153
7.7530000000	155
7.7830000000	155
7.8130000000	147
7.8430000000	149
7.8730000000	146
7.9030000000	145
7.9330000000	145
7.9630000000	151
7.9930000000	159
8.0230000000	132
8.0530000000	152
8.0830000000	126
8.1130000000	140
8.1430000000	142
8.1730000000	138
8.2030000000	123
8.2330000000	145
8.2630000000	155
8.2930000000	146
8.3230000000	150
8.3530000000	145
8.3830000000	155
8.4130000000	148
8.4430000000	130
8.4730000000	148
8.5030000000	153
8.5330000000	154
8.5630000000	167
8.5930000000	148
8.6230000000	125
8.6530000000	143
8.6830000000	140
8.7130000000	149
8.7430000000	143
8.7730000000	155
8.8030000000	146
8.8330000000	146
8.8630000000	143
8.8930000000	160
8.9230000000	143
8.9530000000	161
8.9830000000	133
9.0130000000	162
9.0430000000	154
9.0730000000	142
9.1030000000	139
9.1330000000	135
9.1630000000	145
9.1930000000	162
9.2230000000	154
9.2530000000	157
9.2830000000	137
9.3130000000	135
9.3430000000	167
9.3730000000	157
9.4030000000	145
9.4330000000	130
9.4630000000	168
9.4930000000	152
9.5230000000	159
9.5530000000	157
9.5830000000	152
9.6130000000	149
9.6430000000	145
9.6730000000	143
9.7030000000	157
9.7330000000	153
9.7630000000	143
9.7930000000	147
9.8230000000	141
9.8530000000	129
9.8830000000	161
9.9130000000	133
9.9430000000	168
9.9730000000	136
10.0030000000	147
10.0330000000	152
10.0630000000	133
10.0930000000	160
10.1230000000	149
10.1530000000	140
10.1830000000	157
10.2130000000	159
10.2430000000	164
10.2730000000	166
10.3030000000	168
10.3330000000	164
10.3630000000	135
10.3930000000	149
10.4230000000	160
10.4530000000	137
10.4830000000	129
10.5130000000	172
10.5430000000	137
10.5730000000	131
10.6030000000	136
10.6330000000	154
10.6630000000	141
10.6930000000	139
10.7230000000	164
10.7530000000	140
10.7830000000	144
10.8130000000	150
10.8430000000	146
10.8730000000	143
10.9030000000	166
10.9330000000	159
10.9630000000	148
10.9930000000	137
11.0230000000	152
11.0530000000	145
11.0830000000	138
11.1130000000	140
11.1430000000	149
11.1730000000	151
11.2030000000	134
11.2330000000	135
11.2630000000	136
11.2930000000	152
11.3230000000	148
11.3530000000	132
11.3830000000	126
11.4130000000	138
11.4430000000	153
11.4730000000	125
11.5030000000	129
11.5330000000	146
11.5630000000	144
11.5930000000	157
11.6230000000	134
11.6530000000	138
11.6830000000	136
11.7130000000	143
11.7430000000	151
11.7730000000	152
11.8030000000	142
11.8330000000	131
11.8630000000	152
11.8930000000	140
11.9230000000	144
11.9530000000	138
11.9830000000	155
12.0130000000	150
12.0430000000	156
12.0730000000	150
12.1030000000	157
12.1330000000	154
12.1630000000	155
12.1930000000	155
12.2230000000	165
12.2530000000	154
12.2830000000	155
12.3130000000	162
12.3430000000	150
12.3730000000	141
12.4030000000	137
12.4330000000	137
12.4630000000	130
12.4930000000	141
12.5230000000	157
12.5530000000	139
12.5830000000	154
12.6130000000	149
12.6430000000	144
12.6730000000	148
12.7030000000	156
12.7330000000	148
12.7630000000	150
12.7930000000	147
12.8230000000	137
12.8530000000	138
12.8830000000	133
12.9130000000	131
12.9430000000	142
12.9730000000	149
13.0030000000	142
13.0330000000	142
13.0630000000	156
13.0930000000	147
13.1230000000	132
13.1530000000	152
13.1830000000	146
13.2130000000	153
13.2430000000	144
13.2730000000	136
13.3030000000	146
13.3330000000	143
13.3630000000	131
13.3930000000	142
13.4230000000	148
13.4530000000	154
13.4830000000	150
13.5130000000	152
13.5430000000	148
13.5730000000	135
13.6030000000	128
13.6330000000	149
13.6630000000	137
13.6930000000	142
13.7230000000	145
13.7530000000	152
13.7830000000	127
13.8130000000	138
13.8430000000	169
13.8730000000	128
13.9030000000	121
13.9330000000	125
13.9630000000	124
13.9930000000	156
14.0230000000	140
14.0530000000	142
14.0830000000	155
14.1130000000	131
14.1430000000	137
14.1730000000	158
14.2030000000	143
14.2330000000	150
14.2630000000	138
14.2930000000	127
14.3230000000	158
14.3530000000	150
14.3830000000	118
14.4130000000	140
14.4430000000	144
14.4730000000	122
14.5030000000	164
14.5330000000	161
14.5630000000	134
14.5930000000	133
14.6230000000	125
14.6530000000	140
14.6830000000	177
14.7130000000	154
14.7430000000	135
14.7730000000	151
14.8030000000	145
14.8330000000	163
14.8630000000	144
14.8930000000	161
14.9230000000	165
14.9530000000	147
14.9830000000	159
15.0130000000	144
15.0430000000	157
15.0730000000	128
15.1030000000	159
15.1330000000	152
15.1630000000	140
15.1930000000	146
15.2230000000	157
15.2530000000	136
15.2830000000	155
15.3130000000	149
15.3430000000	142
15.3730000000	157
15.4030000000	141
15.4330000000	156
15.4630000000	170
15.4930000000	155
15.5230000000	144
15.5530000000	137
15.5830000000	132
15.6130000000	157
15.6430000000	151
15.6730000000	166
15.7030000000	147
15.7330000000	143
15.7630000000	150
15.7930000000	155
15.8230000000	130
15.8530000000	143
15.8830000000	125
15.9130000000	148
15.9430000000	146
15.9730000000	162
16.0030000000	171
16.0330000000	140
16.0630000000	135
16.0930000000	135
16.1230000000	147
16.1530000000	143
16.1830000000	152
16.2130000000	115
16.2430000000	126
16.2730000000	130
16.3030000000	160
16.3330000000	139
16.3630000000	140
16.3930000000	146
16.4230000000	154
16.4530000000	129
16.4830000000	132
16.5130000000	139
16.5430000000	167
16.5730000000	139
16.6030000000	146
16.6330000000	141
16.6630000000	163
16.6930000000	134
16.7230000000	126
16.7530000000	124
16.7830000000	143
16.8130000000	150
16.8430000000	141
16.8730000000	157
16.9030000000	157
16.9330000000	150
16.9630000000	165
16.9930000000	158
17.0230000000	147
17.0530000000	164
17.0830000000	152
17.1130000000	152
17.1430000000	141
17.1730000000	160
17.2030000000	173
17.2330000000	138
17.2630000000	142
17.2930000000	140
17.3230000000	126
17.3530000000	138
17.3830000000	153
17.4130000000	152
17.4430000000	141
17.4730000000	138
17.5030000000	148
17.5330000000	146
17.5630000000	150
17.5930000000	149
17.6230000000	162
17.6530000000	148
17.6830000000	152
17.7130000000	146
17.7430000000	138
17.7730000000	168
17.8030000000	179
17.8330000000	177
17.8630000000	155
17.8930000000	140
17.9230000000	158
17.9530000000	154
17.9830000000	148
18.0130000000	157
18.0430000000	151
18.0730000000	136
18.1030000000	143
18.1330000000	141
18.1630000000	141
18.1930000000	131
18.2230000000	141
18.2530000000	144
18.2830000000	135
18.3130000000	137
18.3430000000	146
18.3730000000	135
18.4030000000	143
18.4330000000	152
18.4630000000	158
18.4930000000	157
18.5230000000	153
18.5530000000	140
18.5830000000	139
18.6130000000	137
18.6430000000	156
18.6730000000	165
18.7030000000	139
18.7330000000	131
18.7630000000	156
18.7930000000	133
18.8230000000	126
18.8530000000	159
18.8830000000	140
18.9130000000	179
18.9430000000	155
18.9730000000	156
19.0030000000	156
19.0330000000	150
19.0630000000	160
19.0930000000	145
19.1230000000	145
19.1530000000	135
19.1830000000	144
19.2130000000	147
19.2430000000	165
19.2730000000	164
19.3030000000	158
19.3330000000	176
19.3630000000	167
19.3930000000	192
19.4230000000	205
19.4530000000	212
19.4830000000	261
19.5130000000	315
19.5430000000	286
19.5730000000	309
19.6030000000	277
19.6330000000	257
19.6630000000	222
19.6930000000	201
19.7230000000	169
19.7530000000	151
19.7830000000	156
19.8130000000	160
19.8430000000	150
19.8730000000	160
19.9030000000	163
19.9330000000	147
19.9630000000	154
19.9930000000	163
20.0230000000	149
20.0530000000	157
20.0830000000	147
20.1130000000	135
20.1430000000	170
20.1730000000	142
20.2030000000	166
20.2330000000	171
20.2630000000	161
20.2930000000	158
20.3230000000	179
20.3530000000	141
20.3830000000	153
20.4130000000	158
20.4430000000	188
20.4730000000	159
20.5030000000	159
20.5330000000	183
20.5630000000	144
20.5930000000	174
20.6230000000	206
20.6530000000	207
20.6830000000	235
20.7130000000	290
20.7430000000	441
20.7730000000	695
20.8030000000	976
20.8330000000	1398
20.8630000000	2256
20.8930000000	3289
20.9230000000	3810
20.9530000000	3097
20.9830000000	2003
21.0130000000	1197
21.0430000000	798
21.0730000000	509
21.1030000000	355
21.1330000000	283
21.1630000000	197
21.1930000000	195
21.2230000000	160
21.2530000000	159
21.2830000000	189
21.3130000000	162
21.3430000000	162
21.3730000000	162
21.4030000000	154
21.4330000000	145
21.4630000000	168
21.4930000000	173
21.5230000000	160
21.5530000000	167
21.5830000000	153
21.6130000000	172
21.6430000000	163
21.6730000000	145
21.7030000000	149
21.7330000000	147
21.7630000000	143
21.7930000000	180
21.8230000000	165
21.8530000000	157
21.8830000000	172
21.9130000000	163
21.9430000000	140
21.9730000000	144
22.0030000000	151
22.0330000000	144
22.0630000000	149
22.0930000000	161
22.1230000000	147
22.1530000000	134
22.1830000000	160
22.2130000000	170
22.2430000000	165
22.2730000000	156
22.3030000000	155
22.3330000000	166
22.3630000000	166
22.3930000000	169
22.4230000000	156
22.4530000000	155
22.4830000000	167
22.5130000000	163
22.5430000000	166
22.5730000000	182
22.6030000000	185
22.6330000000	189
22.6630000000	191
22.6930000000	192
22.7230000000	237
22.7530000000	241
22.7830000000	209
22.8130000000	195
22.8430000000	181
22.8730000000	206
22.9030000000	178
22.9330000000	170
22.9630000000	201
22.9930000000	165
23.0230000000	151
23.0530000000	178
23.0830000000	171
23.1130000000	173
23.1430000000	158
23.1730000000	156
23.2030000000	161
23.2330000000	169
23.2630000000	164
23.2930000000	165
23.3230000000	198
23.3530000000	196
23.3830000000	172
23.4130000000	193
23.4430000000	152
23.4730000000	148
23.5030000000	178
23.5330000000	168
23.5630000000	162
23.5930000000	167
23.6230000000	160
23.6530000000	160
23.6830000000	158
23.7130000000	174
23.7430000000	168
23.7730000000	173
23.8030000000	171
23.8330000000	160
23.8630000000	183
23.8930000000	174
23.9230000000	176
23.9530000000	154
23.9830000000	171
24.0130000000	167
24.0430000000	159
24.0730000000	149
24.1030000000	179
24.1330000000	158
24.1630000000	164
24.1930000000	166
24.2230000000	160
24.2530000000	162
24.2830000000	158
24.3130000000	186
24.3430000000	173
24.3730000000	147
24.4030000000	185
24.4330000000	177
24.4630000000	170
24.4930000000	155
24.5230000000	158
24.5530000000	163
24.5830000000	160
24.6130000000	174
24.6430000000	169
24.6730000000	171
24.7030000000	182
24.7330000000	147
24.7630000000	182
24.7930000000	160
24.8230000000	148
24.8530000000	137
24.8830000000	171
24.9130000000	177
24.9430000000	158
24.9730000000	160
25.0030000000	153
25.0330000000	171
25.0630000000	161
25.0930000000	162
25.1230000000	173
25.1530000000	150
25.1830000000	161
25.2130000000	160
25.2430000000	165
25.2730000000	163
25.3030000000	155
25.3330000000	179
25.3630000000	155
25.3930000000	164
25.4230000000	179
25.4530000000	179
25.4830000000	171
25.5130000000	212
25.5430000000	191
25.5730000000	239
25.6030000000	219
25.6330000000	247
25.6630000000	210
25.6930000000	188
25.7230000000	198
25.7530000000	170
25.7830000000	155
25.8130000000	164
25.8430000000	155
25.8730000000	136
25.9030000000	162
25.9330000000	167
25.9630000000	172
25.9930000000	159
26.0230000000	187
26.0530000000	197
26.0830000000	162
26.1130000000	162
26.1430000000	194
26.1730000000	206
26.2030000000	227
26.2330000000	281
26.2630000000	356
26.2930000000	431
26.3230000000	536
26.3530000000	782
26.3830000000	917
26.4130000000	895
26.4430000000	831
26.4730000000	714
26.5030000000	523
26.5330000000	366
26.5630000000	286
26.5930000000	237
26.6230000000	216
26.6530000000	229
26.6830000000	207
26.7130000000	192
26.7430000000	188
26.7730000000	188
26.8030000000	160
26.8330000000	178
26.8630000000	160
26.8930000000	136
26.9230000000	147
26.9530000000	160
26.9830000000	154
27.0130000000	162
27.0430000000	183
27.0730000000	151
27.1030000000	130
27.1330000000	142
27.1630000000	152
27.1930000000	174
27.2230000000	180
27.2530000000	152
27.2830000000	173
27.3130000000	159
27.3430000000	159
27.3730000000	156
27.4030000000	142
27.4330000000	167
27.4630000000	149
27.4930000000	137
27.5230000000	156
27.5530000000	138
27.5830000000	151
27.6130000000	160
27.6430000000	152
27.6730000000	126
27.7030000000	143
27.7330000000	159
27.7630000000	163
27.7930000000	153
27.8230000000	146
27.8530000000	159
27.8830000000	145
27.9130000000	142
27.9430000000	142
27.9730000000	141
28.0030000000	148
28.0330000000	142
28.0630000000	144
28.0930000000	150
28.1230000000	147
28.1530000000	142
28.1830000000	152
28.2130000000	161
28.2430000000	164
28.2730000000	149
28.3030000000	141
28.3330000000	157
28.3630000000	154
28.3930000000	150
28.4230000000	144
28.4530000000	156
28.4830000000	151
28.5130000000	169
28.5430000000	160
28.5730000000	138
28.6030000000	158
28.6330000000	168
28.6630000000	162
28.6930000000	158
28.7230000000	137
28.7530000000	167
28.7830000000	143
28.8130000000	170
28.8430000000	177
28.8730000000	147
28.9030000000	154
28.9330000000	141
28.9630000000	150
28.9930000000	155
29.0230000000	156
29.0530000000	148
29.0830000000	147
29.1130000000	157
29.1430000000	143
29.1730000000	154
29.2030000000	136
29.2330000000	138
29.2630000000	145
29.2930000000	126
29.3230000000	137
29.3530000000	143
29.3830000000	138
29.4130000000	137
29.4430000000	136
29.4730000000	124
29.5030000000	147
29.5330000000	149
29.5630000000	125
29.5930000000	150
29.6230000000	137
29.6530000000	112
29.6830000000	114
29.7130000000	140
29.7430000000	138
29.7730000000	146
29.8030000000	150
29.8330000000	120
29.8630000000	136
29.8930000000	155
29.9230000000	124
29.9530000000	136
29.9830000000	144
30.0130000000	150
30.0430000000	160
30.0730000000	136
30.1030000000	170
30.1330000000	182
30.1630000000	262
30.1930000000	379
30.2230000000	517
30.2530000000	735
30.2830000000	1152
30.3130000000	1683
30.3430000000	2257
30.3730000000	2678
30.4030000000	2593
30.4330000000	2082
30.4630000000	1461
30.4930000000	949
30.5230000000	652
30.5530000000	419
30.5830000000	302
30.6130000000	216
30.6430000000	187
30.6730000000	172
30.7030000000	147
30.7330000000	153
30.7630000000	146
30.7930000000	145
30.8230000000	136
30.8530000000	148
30.8830000000	129
30.9130000000	142
30.9430000000	129
30.9730000000	143
31.0030000000	133
31.0330000000	147
31.0630000000	129
31.0930000000	131
31.1230000000	148
31.1530000000	155
31.1830000000	148
31.2130000000	159
31.2430000000	122
31.2730000000	122
31.3030000000	137
31.3330000000	146
31.3630000000	129
31.3930000000	137
31.4230000000	134
31.4530000000	126
31.4830000000	147
31.5130000000	134
31.5430000000	154
31.5730000000	149
31.6030000000	167
31.6330000000	183
31.6630000000	197
31.6930000000	297
31.7230000000	395
31.7530000000	495
31.7830000000	680
31.8130000000	1035
31.8430000000	1273
31.8730000000	1379
31.9030000000	1344
31.9330000000	1132
31.9630000000	973
31.9930000000	882
32.0230000000	907
32.0530000000	987
32.0830000000	998
32.1130000000	985
32.1430000000	829
32.1730000000	650
32.2030000000	480
32.2330000000	332
32.2630000000	250
32.2930000000	194
32.3230000000	140
32.3530000000	137
32.3830000000	161
32.4130000000	141
32.4430000000	127
32.4730000000	138
32.5030000000	140
32.5330000000	132
32.5630000000	127
32.5930000000	116
32.6230000000	123
32.6530000000	126
32.6830000000	108
32.7130000000	103
32.7430000000	117
32.7730000000	107
32.8030000000	118
32.8330000000	116
32.8630000000	118
32.8930000000	120
32.9230000000	127
32.9530000000	125
32.9830000000	110
33.0130000000	100
33.0430000000	124
33.0730000000	154
33.1030000000	147
33.1330000000	153
33.1630000000	218
33.1930000000	258
33.2230000000	304
33.2530000000	399
33.2830000000	408
33.3130000000	344
33.3430000000	274
33.3730000000	213
33.4030000000	178
33.4330000000	143
33.4630000000	131
33.4930000000	116
33.5230000000	114
33.5530000000	94
33.5830000000	95
33.6130000000	109
33.6430000000	114
33.6730000000	116
33.7030000000	122
33.7330000000	112
33.7630000000	107
33.7930000000	109
33.8230000000	97
33.8530000000	100
33.8830000000	103
33.9130000000	103
33.9430000000	113
33.9730000000	120
34.0030000000	121
34.0330000000	108
34.0630000000	106
34.0930000000	119
34.1230000000	110
34.1530000000	102
34.1830000000	115
34.2130000000	95
34.2430000000	100
34.2730000000	100
34.3030000000	105
34.3330000000	96
34.3630000000	94
34.3930000000	101
34.4230000000	94
34.4530000000	91
34.4830000000	109
34.5130000000	121
34.5430000000	93
34.5730000000	101
34.6030000000	97
34.6330000000	91
34.6630000000	100
34.6930000000	101
34.7230000000	97
34.7530000000	95
34.7830000000	103
34.8130000000	100
34.8430000000	95
34.8730000000	92
34.9030000000	93
34.9330000000	102
34.9630000000	108
34.9930000000	103
35.0230000000	106
35.0530000000	105
35.0830000000	123
35.1130000000	117
35.1430000000	111
35.1730000000	139
35.2030000000	157
35.2330000000	199
35.2630000000	243
35.2930000000	271
35.3230000000	280
35.3530000000	242
35.3830000000	196
35.4130000000	165
35.4430000000	155
35.4730000000	128
35.5030000000	118
35.5330000000	123
35.5630000000	105
35.5930000000	103
35.6230000000	115
35.6530000000	89
35.6830000000	95
35.7130000000	104
35.7430000000	97
35.7730000000	96
35.8030000000	113
35.8330000000	99
35.8630000000	101
35.8930000000	87
35.9230000000	75
35.9530000000	92
35.9830000000	97
36.0130000000	101
36.0430000000	93
36.0730000000	79
36.1030000000	98
36.1330000000	99
36.1630000000	108
36.1930000000	114
36.2230000000	79
36.2530000000	88
36.2830000000	100
36.3130000000	113
36.3430000000	95
36.3730000000	110
36.4030000000	102
36.4330000000	109
36.4630000000	133
36.4930000000	155
36.5230000000	197
36.5530000000	303
36.5830000000	350
36.6130000000	384
36.6430000000	376
36.6730000000	341
36.7030000000	287
36.7330000000	227
36.7630000000	168
36.7930000000	141
36.8230000000	109
36.8530000000	108
36.8830000000	101
36.9130000000	114
36.9430000000	122
36.9730000000	95
37.0030000000	92
37.0330000000	89
37.0630000000	84
37.0930000000	87
37.1230000000	89
37.1530000000	86
37.1830000000	76
37.2130000000	98
37.2430000000	116
37.2730000000	94
37.3030000000	79
37.3330000000	86
37.3630000000	83
37.3930000000	73
37.4230000000	78
37.4530000000	79
37.4830000000	83
37.5130000000	80
37.5430000000	88
37.5730000000	84
37.6030000000	75
37.6330000000	85
37.6630000000	95
37.6930000000	99
37.7230000000	75
37.7530000000	80
37.7830000000	80
37.8130000000	86
37.8430000000	81
37.8730000000	93
37.9030000000	84
37.9330000000	68
37.9630000000	80
37.9930000000	80
38.0230000000	68
38.0530000000	79
38.0830000000	91
38.1130000000	90
38.1430000000	77
38.1730000000	86
38.2030000000	93
38.2330000000	105
38.2630000000	100
38.2930000000	84
38.3230000000	86
38.3530000000	77
38.3830000000	98
38.4130000000	90
38.4430000000	80
38.4730000000	93
38.5030000000	86
38.5330000000	77
38.5630000000	83
38.5930000000	90
38.6230000000	98
38.6530000000	92
38.6830000000	82
38.7130000000	79
38.7430000000	88
38.7730000000	90
38.8030000000	89
38.8330000000	88
38.8630000000	82
38.8930000000	91
38.9230000000	94
38.9530000000	93
38.9830000000	91
39.0130000000	81
39.0430000000	94
39.0730000000	109
39.1030000000	79
39.1330000000	71
39.1630000000	83
39.1930000000	99
39.2230000000	113
39.2530000000	93
39.2830000000	101
39.3130000000	107
39.3430000000	97
39.3730000000	98
39.4030000000	110
39.4330000000	106
39.4630000000	121
39.4930000000	141
39.5230000000	166
39.5530000000	234
39.5830000000	300
39.6130000000	406
39.6430000000	652
39.6730000000	845
39.7030000000	980
39.7330000000	991
39.7630000000	924
39.7930000000	706
39.8230000000	505
39.8530000000	395
39.8830000000	266
39.9130000000	196
39.9430000000	169
39.9730000000	125
40.0030000000	114
40.0330000000	85
40.0630000000	89
40.0930000000	83
40.1230000000	101
40.1530000000	83
40.1830000000	95
40.2130000000	100
40.2430000000	74
40.2730000000	86
40.3030000000	83
40.3330000000	87
40.3630000000	93
40.3930000000	72
40.4230000000	92
40.4530000000	85
40.4830000000	79
40.5130000000	71
40.5430000000	64
40.5730000000	87
40.6030000000	67
40.6330000000	93
40.6630000000	79
40.6930000000	108
40.7230000000	80
40.7530000000	95
40.7830000000	61
40.8130000000	85
40.8430000000	93
40.8730000000	86
40.9030000000	90
40.9330000000	91
40.9630000000	98
40.9930000000	101
41.0230000000	90
41.0530000000	91
41.0830000000	96
41.1130000000	102
41.1430000000	89
41.1730000000	91
41.2030000000	88
41.2330000000	83
41.2630000000	99
41.2930000000	92
41.3230000000	71
41.3530000000	94
41.3830000000	97
41.4130000000	90
41.4430000000	78
41.4730000000	79
41.5030000000	86
41.5330000000	78
41.5630000000	90
41.5930000000	96
41.6230000000	102
41.6530000000	91
41.6830000000	84
41.7130000000	89
41.7430000000	85
41.7730000000	83
41.8030000000	89
41.8330000000	90
41.8630000000	82
41.8930000000	96
41.9230000000	84
41.9530000000	83
41.9830000000	91
42.0130000000	94
42.0430000000	97
42.0730000000	88
42.1030000000	97
42.1330000000	93
42.1630000000	86
42.1930000000	89
42.2230000000	90
42.2530000000	93
42.2830000000	100
42.3130000000	104
42.3430000000	107
42.3730000000	127
42.4030000000	145
42.4330000000	164
42.4630000000	196
42.4930000000	214
42.5230000000	214
42.5530000000	214
42.5830000000	180
42.6130000000	156
42.6430000000	145
42.6730000000	116
42.7030000000	108
42.7330000000	103
42.7630000000	98
42.7930000000	91
42.8230000000	90
42.8530000000	114
42.8830000000	117
42.9130000000	124
42.9430000000	181
42.9730000000	212
43.0030000000	328
43.0330000000	432
43.0630000000	630
43.0930000000	865
43.1230000000	1057
43.1530000000	1123
43.1830000000	1058
43.2130000000	888
43.2430000000	647
43.2730000000	499
43.3030000000	315
43.3330000000	217
43.3630000000	169
43.3930000000	129
43.4230000000	101
43.4530000000	103
43.4830000000	116
43.5130000000	98
43.5430000000	88
43.5730000000	94
43.6030000000	100
43.6330000000	105
43.6630000000	107
43.6930000000	114
43.7230000000	96
43.7530000000	105
43.7830000000	113
43.8130000000	102
43.8430000000	89
43.8730000000	85
43.9030000000	89
43.9330000000	87
43.9630000000	75
43.9930000000	91
44.0230000000	91
44.0530000000	71
44.0830000000	78
44.1130000000	82
44.1430000000	79
44.1730000000	76
44.2030000000	89
44.2330000000	81
44.2630000000	70
44.2930000000	68
44.3230000000	72
44.3530000000	79
44.3830000000	73
44.4130000000	74
44.4430000000	59
44.4730000000	86
44.5030000000	70
44.5330000000	72
44.5630000000	93
44.5930000000	78
44.6230000000	89
44.6530000000	78
44.6830000000	88
44.7130000000	88
44.7430000000	93
44.7730000000	95
44.8030000000	110
44.8330000000	143
44.8630000000	188
44.8930000000	228
44.9230000000	294
44.9530000000	438
44.9830000000	560
45.0130000000	740
45.0430000000	834
45.0730000000	767
45.1030000000	679
45.1330000000	531
45.1630000000	384
45.1930000000	271
45.2230000000	193
45.2530000000	168
45.2830000000	119
45.3130000000	104
45.3430000000	103
45.3730000000	102
45.4030000000	81
45.4330000000	75
45.4630000000	80
45.4930000000	81
45.5230000000	80
45.5530000000	81
45.5830000000	77
45.6130000000	80
45.6430000000	74
45.6730000000	77
45.7030000000	76
45.7330000000	69
45.7630000000	76
45.7930000000	79
45.8230000000	84
45.8530000000	72
45.8830000000	79
45.9130000000	93
45.9430000000	103
45.9730000000	114
46.0030000000	131
46.0330000000	164
46.0630000000	175
46.0930000000	171
46.1230000000	177
46.1530000000	135
46.1830000000	129
46.2130000000	116
46.2430000000	100
46.2730000000	81
46.3030000000	100
46.3330000000	93
46.3630000000	93
46.3930000000	100
46.4230000000	115
46.4530000000	112
46.4830000000	121
46.5130000000	108
46.5430000000	112
46.5730000000	91
46.6030000000	80
46.6330000000	92
46.6630000000	61
46.6930000000	75
46.7230000000	78
46.7530000000	102
46.7830000000	102
46.8130000000	114
46.8430000000	162
46.8730000000	207
46.9030000000	276
46.9330000000	315
46.9630000000	229
46.9930000000	236
47.0230000000	245
47.0530000000	170
47.0830000000	140
47.1130000000	103
47.1430000000	78
47.1730000000	71
47.2030000000	79
47.2330000000	50
47.2630000000	57
47.2930000000	69
47.3230000000	77
47.3530000000	64
47.3830000000	70
47.4130000000	84
47.4430000000	80
47.4730000000	72
47.5030000000	85
47.5330000000	64
47.5630000000	87
47.5930000000	81
47.6230000000	85
47.6530000000	82
47.6830000000	66
47.7130000000	83
47.7430000000	69
47.7730000000	87
47.8030000000	65
47.8330000000	72
47.8630000000	69
47.8930000000	60
47.9230000000	71
47.9530000000	59
47.9830000000	72
48.0130000000	63
48.0430000000	65
48.0730000000	60
48.1030000000	65
48.1330000000	59
48.1630000000	68
48.1930000000	72
48.2230000000	62
48.2530000000	56
48.2830000000	66
48.3130000000	67
48.3430000000	54
48.3730000000	57
48.4030000000	61
48.4330000000	61
48.4630000000	56
48.4930000000	52
48.5230000000	49
48.5530000000	63
48.5830000000	61
48.6130000000	43
48.6430000000	54
48.6730000000	72
48.7030000000	56
48.7330000000	62
48.7630000000	63
48.7930000000	63
48.8230000000	55
48.8530000000	52
48.8830000000	65
48.9130000000	66
48.9430000000	56
48.9730000000	59
49.0030000000	63
49.0330000000	60
49.0630000000	61
49.0930000000	62
49.1230000000	60
49.1530000000	61
49.1830000000	63
49.2130000000	51
49.2430000000	67
49.2730000000	62
49.3030000000	55
49.3330000000	71
49.3630000000	73
49.3930000000	56
49.4230000000	67
49.4530000000	65
49.4830000000	59
49.5130000000	57
49.5430000000	53
49.5730000000	61
49.6030000000	65
49.6330000000	44
49.6630000000	58
49.6930000000	55
49.7230000000	55
49.7530000000	58
49.7830000000	66
49.8130000000	61
49.8430000000	63
49.8730000000	67
49.9030000000	59
49.9330000000	60
49.9630000000	68
49.9930000000	58
50.0230000000	61
50.0530000000	58
50.0830000000	62
50.1130000000	62
50.1430000000	65
50.1730000000	63
50.2030000000	69
50.2330000000	67
50.2630000000	61
50.2930000000	67
50.3230000000	74
50.3530000000	70
50.3830000000	70
50.4130000000	67
50.4430000000	93
50.4730000000	97
50.5030000000	100
50.5330000000	79
50.5630000000	92
50.5930000000	81
50.6230000000	71
50.6530000000	59
50.6830000000	58
50.7130000000	64
50.7430000000	57
50.7730000000	49
50.8030000000	40
50.8330000000	51
50.8630000000	53
50.8930000000	51
50.9230000000	48
50.9530000000	50
50.9830000000	61
51.0130000000	63
51.0430000000	45
51.0730000000	51
51.1030000000	62
51.1330000000	59
51.1630000000	49
51.1930000000	57
51.2230000000	54
51.2530000000	47
51.2830000000	56
51.3130000000	56
51.3430000000	48
51.3730000000	47
51.4030000000	60
51.4330000000	62
51.4630000000	51
51.4930000000	54
51.5230000000	50
51.5530000000	42
51.5830000000	63
51.6130000000	60
51.6430000000	52
51.6730000000	62
51.7030000000	50
51.7330000000	43
51.7630000000	58
51.7930000000	56
51.8230000000	45
51.8530000000	55
51.8830000000	50
51.9130000000	45
51.9430000000	43
51.9730000000	63
52.0030000000	58
52.0330000000	63
52.0630000000	83
52.0930000000	75
52.1230000000	79
52.1530000000	72
52.1830000000	85
52.2130000000	81
52.2430000000	72
52.2730000000	70
52.3030000000	47
52.3330000000	67
52.3630000000	47
52.3930000000	65
52.4230000000	63
52.4530000000	50
52.4830000000	58
52.5130000000	59
52.5430000000	60
52.5730000000	72
52.6030000000	74
52.6330000000	74
52.6630000000	63
52.6930000000	67
52.7230000000	63
52.7530000000	67
52.7830000000	63
52.8130000000	41
52.8430000000	62
52.8730000000	58
52.9030000000	61
52.9330000000	48
52.9630000000	53
52.9930000000	47
53.0230000000	60
53.0530000000	63
53.0830000000	42
53.1130000000	46
53.1430000000	49
53.1730000000	67
53.2030000000	63
53.2330000000	52
53.2630000000	49
53.2930000000	62
53.3230000000	51
53.3530000000	54
53.3830000000	44
53.4130000000	58
53.4430000000	55
53.4730000000	51
53.5030000000	50
53.5330000000	54
53.5630000000	49
53.5930000000	57
53.6230000000	50
53.6530000000	54
53.6830000000	52
53.7130000000	64
53.7430000000	82
53.7730000000	92
53.8030000000	117
53.8330000000	126
53.8630000000	142
53.8930000000	121
53.9230000000	113
53.9530000000	98
53.9830000000	90
54.0130000000	68
54.0430000000	66
54.0730000000	65
54.1030000000	48
54.1330000000	47
54.1630000000	45
54.1930000000	51
54.2230000000	56
54.2530000000	52
54.2830000000	49
54.3130000000	64
54.3430000000	57
54.3730000000	44
54.4030000000	54
54.4330000000	54
54.4630000000	49
54.4930000000	47
54.5230000000	45
54.5530000000	53
54.5830000000	44
54.6130000000	51
54.6430000000	56
54.6730000000	43
54.7030000000	56
54.7330000000	53
54.7630000000	51
54.7930000000	60
54.8230000000	64
54.8530000000	76
54.8830000000	89
54.9130000000	89
54.9430000000	108
54.9730000000	97
55.0030000000	108
55.0330000000	101
55.0630000000	70
55.0930000000	65
55.1230000000	59
55.1530000000	58
55.1830000000	60
55.2130000000	59
55.2430000000	75
55.2730000000	57
55.3030000000	65
55.3330000000	81
55.3630000000	92
55.3930000000	103
55.4230000000	120
55.4530000000	149
55.4830000000	104
55.5130000000	120
55.5430000000	105
55.5730000000	73
55.6030000000	90
55.6330000000	78
55.6630000000	71
55.6930000000	63
55.7230000000	52
55.7530000000	45
55.7830000000	43
55.8130000000	68
55.8430000000	58
55.8730000000	43
55.9030000000	44
55.9330000000	40
55.9630000000	42
55.9930000000	47
56.0230000000	60
56.0530000000	51
56.0830000000	51
56.1130000000	55
56.1430000000	53
56.1730000000	44
56.2030000000	47
56.2330000000	46
56.2630000000	52
56.2930000000	49
56.3230000000	62
56.3530000000	50
56.3830000000	45
56.4130000000	52
56.4430000000	60
56.4730000000	59
56.5030000000	50
56.5330000000	50
56.5630000000	56
56.5930000000	52
56.6230000000	48
56.6530000000	40
56.6830000000	44
56.7130000000	55
56.7430000000	36
56.7730000000	53
56.8030000000	43
56.8330000000	44
56.8630000000	49
56.8930000000	43
56.9230000000	38
56.9530000000	42
56.9830000000	63
57.0130000000	64
57.0430000000	54
57.0730000000	57
57.1030000000	50
57.1330000000	52
57.1630000000	49
57.1930000000	53
57.2230000000	51
57.2530000000	49
57.2830000000	48
57.3130000000	47
57.3430000000	54
57.3730000000	43
57.4030000000	49
57.4330000000	50
57.4630000000	48
57.4930000000	46
57.5230000000	43
57.5530000000	42
57.5830000000	51
57.6130000000	50
57.6430000000	45
57.6730000000	52
57.7030000000	52
57.7330000000	53
57.7630000000	47
57.7930000000	50
57.8230000000	48
57.8530000000	45
57.8830000000	49
57.9130000000	42
57.9430000000	46
57.9730000000	39
58.0030000000	48
58.0330000000	46
58.0630000000	57
58.0930000000	39
58.1230000000	50
58.1530000000	61
58.1830000000	59
58.2130000000	51
58.2430000000	57
58.2730000000	47
58.3030000000	45
58.3330000000	45
58.3630000000	47
58.3930000000	41
58.4230000000	49
58.4530000000	44
58.4830000000	42
58.5130000000	55
58.5430000000	49
58.5730000000	41
58.6030000000	46
58.6330000000	51
58.6630000000	43
58.6930000000	40
58.7230000000	41
58.7530000000	39
58.7830000000	46
58.8130000000	52
58.8430000000	51
58.8730000000	44
58.9030000000	36
58.9330000000	35
58.9630000000	43
58.9930000000	53
59.0230000000	41
59.0530000000	45
59.0830000000	47
59.1130000000	48
59.1430000000	51
59.1730000000	38
59.2030000000	36
59.2330000000	38
59.2630000000	49
59.2930000000	44
59.3230000000	40
59.3530000000	44
59.3830000000	45
59.4130000000	40
59.4430000000	38
59.4730000000	51
59.5030000000	48
59.5330000000	41
59.5630000000	47
59.5930000000	38
59.6230000000	39
59.6530000000	52
59.6830000000	45
59.7130000000	48
59.7430000000	61
59.7730000000	52
59.8030000000	36
59.8330000000	35
59.8630000000	51
59.8930000000	44
59.9230000000	59
59.9530000000	49
59.9830000000	49
60.0130000000	53
60.0430000000	68
60.0730000000	68
60.1030000000	79
60.1330000000	131
60.1630000000	127
60.1930000000	125
60.2230000000	107
60.2530000000	104
60.2830000000	94
60.3130000000	88
60.3430000000	87
60.3730000000	68
60.4030000000	52
60.4330000000	49
60.4630000000	55
60.4930000000	43
60.5230000000	38
60.5530000000	46
60.5830000000	37
60.6130000000	43
60.6430000000	42
60.6730000000	45
60.7030000000	54
60.7330000000	48
60.7630000000	50
60.7930000000	45
60.8230000000	46
60.8530000000	51
60.8830000000	50
60.9130000000	44
60.9430000000	42
60.9730000000	37
61.0030000000	39
61.0330000000	47
61.0630000000	40
61.0930000000	45
61.1230000000	47
61.1530000000	64
61.1830000000	52
61.2130000000	51
61.2430000000	61
61.2730000000	51
61.3030000000	51
61.3330000000	50
61.3630000000	57
61.3930000000	50
61.4230000000	78
61.4530000000	83
61.4830000000	86
61.5130000000	108
61.5430000000	104
61.5730000000	110
61.6030000000	104
61.6330000000	80
61.6630000000	91
61.6930000000	72
61.7230000000	75
61.7530000000	56
61.7830000000	52
61.8130000000	60
61.8430000000	49
61.8730000000	41
61.9030000000	51
61.9330000000	38
61.9630000000	57
61.9930000000	29
62.0230000000	37
62.0530000000	43
62.0830000000	45
62.1130000000	39
62.1430000000	42
62.1730000000	44
62.2030000000	48
62.2330000000	37
62.2630000000	44
62.2930000000	56
62.3230000000	48
62.3530000000	44
62.3830000000	35
62.4130000000	47
62.4430000000	44
62.4730000000	46
62.5030000000	44
62.5330000000	46
62.5630000000	43
62.5930000000	48
62.6230000000	37
62.6530000000	44
62.6830000000	43
62.7130000000	50
62.7430000000	48
62.7730000000	46
62.8030000000	48
62.8330000000	37
62.8630000000	45
62.8930000000	43
62.9230000000	46
62.9530000000	38
62.9830000000	48
63.0130000000	38
63.0430000000	41
63.0730000000	46
63.1030000000	53
63.1330000000	55
63.1630000000	41
63.1930000000	43
63.2230000000	50
63.2530000000	53
63.2830000000	49
63.3130000000	37
63.3430000000	45
63.3730000000	62
63.4030000000	58
63.4330000000	38
63.4630000000	50
63.4930000000	44
63.5230000000	52
63.5530000000	55
63.5830000000	46
63.6130000000	26
63.6430000000	39
63.6730000000	39
63.7030000000	43
63.7330000000	39
63.7630000000	48
63.7930000000	38
63.8230000000	42
63.8530000000	47
63.8830000000	51
63.9130000000	38
63.9430000000	32
63.9730000000	39
64.0030000000	44
64.0330000000	42
64.0630000000	48
64.0930000000	45
64.1230000000	49
64.1530000000	41
64.1830000000	42
64.2130000000	35
64.2430000000	41
64.2730000000	42
64.3030000000	42
64.3330000000	39
64.3630000000	54
64.3930000000	40
64.4230000000	38
64.4530000000	45
64.4830000000	56
64.5130000000	33
64.5430000000	44
64.5730000000	40
64.6030000000	42
64.6330000000	38
64.6630000000	53
64.6930000000	68
64.7230000000	39
64.7530000000	58
64.7830000000	41
64.8130000000	44
64.8430000000	34
64.8730000000	38
64.9030000000	44
64.9330000000	35
64.9630000000	43
64.9930000000	41
65.0230000000	48
65.0530000000	48
65.0830000000	44
65.1130000000	57
65.1430000000	42
65.1730000000	34
65.2030000000	47
65.2330000000	33
65.2630000000	37
65.2930000000	32
65.3230000000	41
65.3530000000	48
65.3830000000	55
65.4130000000	33
65.4430000000	32
65.4730000000	37
65.5030000000	48
65.5330000000	45
65.5630000000	38
65.5930000000	40
65.6230000000	40
65.6530000000	47
65.6830000000	45
65.7130000000	46
65.7430000000	44
65.7730000000	55
65.8030000000	31
65.8330000000	50
65.8630000000	48
65.8930000000	42
65.9230000000	48
65.9530000000	53
65.9830000000	47
66.0130000000	66
66.0430000000	85
66.0730000000	93
66.1030000000	129
66.1330000000	152
66.1630000000	135
66.1930000000	131
66.2230000000	137
66.2530000000	124
66.2830000000	110
66.3130000000	119
66.3430000000	126
66.3730000000	95
66.4030000000	63
66.4330000000	79
66.4630000000	65
66.4930000000	50
66.5230000000	50
66.5530000000	49
66.5830000000	49
66.6130000000	58
66.6430000000	62
66.6730000000	45
66.7030000000	47
66.7330000000	54
66.7630000000	52
66.7930000000	37
66.8230000000	52
66.8530000000	46
66.8830000000	37
66.9130000000	49
66.9430000000	36
66.9730000000	47
67.0030000000	47
67.0330000000	36
67.0630000000	41
67.0930000000	52
67.1230000000	46
67.1530000000	49
67.1830000000	50
67.2130000000	40
67.2430000000	38
67.2730000000	43
67.3030000000	45
67.3330000000	49
67.3630000000	44
67.3930000000	46
67.4230000000	48
67.4530000000	42
67.4830000000	34
67.5130000000	36
67.5430000000	35
67.5730000000	39
67.6030000000	43
67.6330000000	47
67.6630000000	34
67.6930000000	41
67.7230000000	45
67.7530000000	27
67.7830000000	30
67.8130000000	43
67.8430000000	44
67.8730000000	42
67.9030000000	37
67.9330000000	34
67.9630000000	44
67.9930000000	45
68.0230000000	37
68.0530000000	41
68.0830000000	44
68.1130000000	42
68.1430000000	45
68.1730000000	43
68.2030000000	43
68.2330000000	41
68.2630000000	58
68.2930000000	43
68.3230000000	57
68.3530000000	49
68.3830000000	30
68.4130000000	50
68.4430000000	32
68.4730000000	32
68.5030000000	45
68.5330000000	47
68.5630000000	44
68.5930000000	42
68.6230000000	41
68.6530000000	40
68.6830000000	37
68.7130000000	41
68.7430000000	42
68.7730000000	41
68.8030000000	39
68.8330000000	35
68.8630000000	44
68.8930000000	30
68.9230000000	35
68.9530000000	44
68.9830000000	38
69.0130000000	43
69.0430000000	34
69.0730000000	51
69.1030000000	51
69.1330000000	42
69.1630000000	45
69.1930000000	44
69.2230000000	55
69.2530000000	40
69.2830000000	38
69.3130000000	51
69.3430000000	51
69.3730000000	52
69.4030000000	36
69.4330000000	37
69.4630000000	63
69.4930000000	29
69.5230000000	41
69.5530000000	48
69.5830000000	50
69.6130000000	53
69.6430000000	51
69.6730000000	48
69.7030000000	44
69.7330000000	47
69.7630000000	46
69.7930000000	44
69.8230000000	42
69.8530000000	49
69.8830000000	40
69.9130000000	51
69.9430000000	49
69.9730000000	38
70.0030000000	39
70.0330000000	41
70.0630000000	33
70.0930000000	43
70.1230000000	35
70.1530000000	49
70.1830000000	37
70.2130000000	44
70.2430000000	43
70.2730000000	46
70.3030000000	36
70.3330000000	47
70.3630000000	42
70.3930000000	36
70.4230000000	42
70.4530000000	45
70.4830000000	34
70.5130000000	40
70.5430000000	45
70.5730000000	43
70.6030000000	40
70.6330000000	39
70.6630000000	41
70.6930000000	35
70.7230000000	42
70.7530000000	38
70.7830000000	36
70.8130000000	39
70.8430000000	38
70.8730000000	36
70.9030000000	43
70.9330000000	44
70.9630000000	41
70.9930000000	31
71.0230000000	27
71.0530000000	34
71.0830000000	44
71.1130000000	42
71.1430000000	43
71.1730000000	46
71.2030000000	54
71.2330000000	52
71.2630000000	48
71.2930000000	38
71.3230000000	49
71.3530000000	44
71.3830000000	45
71.4130000000	44
71.4430000000	38
71.4730000000	48
71.5030000000	41
71.5330000000	43
71.5630000000	41
71.5930000000	45
71.6230000000	44
71.6530000000	42
71.6830000000	54
71.7130000000	54
71.7430000000	36
71.7730000000	42
71.8030000000	57
71.8330000000	46
71.8630000000	45
71.8930000000	51
71.9230000000	55
71.9530000000	48
71.9830000000	54
72.0130000000	47
72.0430000000	57
72.0730000000	57
72.1030000000	73
72.1330000000	63
72.1630000000	72
72.1930000000	89
72.2230000000	104
72.2530000000	112
72.2830000000	90
72.3130000000	90
72.3430000000	70
72.3730000000	84
72.4030000000	91
72.4330000000	80
72.4630000000	70
72.4930000000	69
72.5230000000	60
72.5530000000	60
72.5830000000	53
72.6130000000	68
72.6430000000	64
72.6730000000	93
72.7030000000	94
72.7330000000	97
72.7630000000	143
72.7930000000	155
72.8230000000	150
72.8530000000	132
72.8830000000	128
72.9130000000	123
72.9430000000	106
72.9730000000	119
73.0030000000	92
73.0330000000	100
73.0630000000	79
73.0930000000	64
73.1230000000	72
73.1530000000	48
73.1830000000	44
73.2130000000	56
73.2430000000	39
73.2730000000	46
73.3030000000	51
73.3330000000	46
73.3630000000	51
73.3930000000	43
73.4230000000	46
73.4530000000	43
73.4830000000	47
73.5130000000	42
73.5430000000	40
73.5730000000	51
73.6030000000	50
73.6330000000	43
73.6630000000	45
73.6930000000	46
73.7230000000	48
73.7530000000	52
73.7830000000	39
73.8130000000	48
73.8430000000	42
73.8730000000	39
73.9030000000	43
73.9330000000	35
73.9630000000	50
73.9930000000	34
74.0230000000	41
74.0530000000	42
74.0830000000	44
74.1130000000	43
74.1430000000	38
74.1730000000	33
74.2030000000	38
74.2330000000	34
74.2630000000	46
74.2930000000	42
74.3230000000	42
74.3530000000	45
74.3830000000	30
74.4130000000	48
74.4430000000	47
74.4730000000	44
74.5030000000	34
74.5330000000	44
74.5630000000	53
74.5930000000	51
74.6230000000	45
74.6530000000	47
74.6830000000	57
74.7130000000	58
74.7430000000	50
74.7730000000	42
74.8030000000	37
74.8330000000	53
74.8630000000	52
74.8930000000	57
74.9230000000	56
74.9530000000	54
74.9830000000	59
75.0130000000	41
75.0430000000	36
75.0730000000	33
75.1030000000	43
75.1330000000	47
75.1630000000	44
75.1930000000	61
75.2230000000	46
75.2530000000	50
75.2830000000	44
75.3130000000	45
75.3430000000	50
75.3730000000	47
75.4030000000	43
75.4330000000	36
75.4630000000	31
75.4930000000	50
75.5230000000	34
75.5530000000	33
75.5830000000	44
75.6130000000	50
75.6430000000	45
75.6730000000	46
75.7030000000	36
75.7330000000	43
75.7630000000	37
75.7930000000	46
75.8230000000	40
75.8530000000	42
75.8830000000	38
75.9130000000	40
75.9430000000	31
75.9730000000	32
76.0030000000	41
76.0330000000	45
76.0630000000	41
76.0930000000	44
76.1230000000	46
76.1530000000	33
76.1830000000	43
76.2130000000	33
76.2430000000	35
76.2730000000	45
76.3030000000	44
76.3330000000	44
76.3630000000	56
76.3930000000	42
76.4230000000	50
76.4530000000	45
76.4830000000	40
76.5130000000	49
76.5430000000	35
76.5730000000	41
76.6030000000	38
76.6330000000	30
76.6630000000	39
76.6930000000	40
76.7230000000	40
76.7530000000	37
76.7830000000	38
76.8130000000	38
76.8430000000	45
76.8730000000	45
76.9030000000	40
76.9330000000	40
76.9630000000	47
76.9930000000	45
77.0230000000	41
77.0530000000	32
77.0830000000	55
77.1130000000	41
77.1430000000	41
77.1730000000	44
77.2030000000	43
77.2330000000	40
77.2630000000	49
77.2930000000	40
77.3230000000	36
77.3530000000	36
77.3830000000	53
77.4130000000	54
77.4430000000	55
77.4730000000	49
77.5030000000	67
77.5330000000	79
77.5630000000	60
77.5930000000	43
77.6230000000	44
77.6530000000	57
77.6830000000	60
77.7130000000	59
77.7430000000	56
77.7730000000	40
77.8030000000	47
77.8330000000	52
77.8630000000	51
77.8930000000	53
77.9230000000	48
77.9530000000	42
77.9830000000	49
78.0130000000	44
78.0430000000	40
78.0730000000	45
78.1030000000	32
78.1330000000	35
78.1630000000	48
78.1930000000	51
78.2230000000	44
78.2530000000	34
78.2830000000	31
78.3130000000	52
78.3430000000	34
78.3730000000	44
78.4030000000	46
78.4330000000	45
78.4630000000	43
78.4930000000	45
78.5230000000	44
78.5530000000	46
78.5830000000	33
78.6130000000	52
78.6430000000	47
78.6730000000	52
78.7030000000	52
78.7330000000	54
78.7630000000	45
78.7930000000	50
78.8230000000	65
78.8530000000	46
78.8830000000	66
78.9130000000	46
78.9430000000	44
78.9730000000	47
79.0030000000	43
79.0330000000	44
79.0630000000	36
79.0930000000	38
79.1230000000	44
79.1530000000	42
79.1830000000	38
79.2130000000	43
79.2430000000	31
79.2730000000	40
79.3030000000	44
79.3330000000	31
79.3630000000	39
79.3930000000	34
79.4230000000	39
79.4530000000	39
79.4830000000	34
79.5130000000	35
79.5430000000	44
79.5730000000	27
79.6030000000	36
79.6330000000	29
79.6630000000	40
79.6930000000	49
79.7230000000	55
79.7530000000	40
79.7830000000	39
79.8130000000	53
79.8430000000	50
79.8730000000	49
79.9030000000	45
79.9330000000	46
79.9630000000	50
79.9930000000	37
80.0230000000	36
80.0530000000	45
80.0830000000	47
80.1130000000	47
80.1430000000	58
80.1730000000	48
80.2030000000	38
80.2330000000	42
80.2630000000	42
80.2930000000	37
80.3230000000	38
80.3530000000	36
80.3830000000	38
80.4130000000	42
80.4430000000	45
80.4730000000	56
80.5030000000	54
80.5330000000	52
80.5630000000	35
80.5930000000	63
80.6230000000	62
80.6530000000	42
80.6830000000	33
80.7130000000	56
80.7430000000	43
80.7730000000	41
80.8030000000	48
80.8330000000	48
80.8630000000	47
80.8930000000	45
80.9230000000	40
80.9530000000	32
80.9830000000	42
81.0130000000	40
81.0430000000	45
81.0730000000	44
81.1030000000	31
81.1330000000	50
81.1630000000	45
81.1930000000	38
81.2230000000	39
81.2530000000	46
81.2830000000	49
81.3130000000	36
81.3430000000	41
81.3730000000	58
81.4030000000	30
81.4330000000	28
81.4630000000	54
81.4930000000	43
81.5230000000	43
81.5530000000	37
81.5830000000	41
81.6130000000	30
81.6430000000	31
81.6730000000	29
81.7030000000	38
81.7330000000	50
81.7630000000	46
81.7930000000	32
81.8230000000	42
81.8530000000	42
81.8830000000	41
81.9130000000	28
81.9430000000	40
81.9730000000	41
82.0030000000	48
82.0330000000	24
82.0630000000	45
82.0930000000	35
82.1230000000	30
82.1530000000	38
82.1830000000	35
82.2130000000	35
82.2430000000	39
82.2730000000	36
82.3030000000	43
82.3330000000	39
82.3630000000	39
82.3930000000	42
82.4230000000	31
82.4530000000	35
82.4830000000	46
82.5130000000	46
82.5430000000	38
82.5730000000	32
82.6030000000	40
82.6330000000	40
82.6630000000	40
82.6930000000	34
82.7230000000	38
82.7530000000	49
82.7830000000	40
82.8130000000	34
82.8430000000	38
82.8730000000	40
82.9030000000	45
82.9330000000	46
82.9630000000	39
82.9930000000	31
83.0230000000	38
83.0530000000	42
83.0830000000	52
83.1130000000	45
83.1430000000	50
83.1730000000	46
83.2030000000	42
83.2330000000	56
83.2630000000	54
83.2930000000	39
83.3230000000	53
83.3530000000	42
83.3830000000	36
83.4130000000	46
83.4430000000	45
83.4730000000	46
83.5030000000	32
83.5330000000	35
83.5630000000	36
83.5930000000	41
83.6230000000	33
83.6530000000	38
83.6830000000	35
83.7130000000	38
83.7430000000	30
83.7730000000	38
83.8030000000	41
83.8330000000	34
83.8630000000	36
83.8930000000	44
83.9230000000	31
83.9530000000	33
83.9830000000	38
84.0130000000	33
84.0430000000	47
84.0730000000	39
84.1030000000	35
84.1330000000	50
84.1630000000	37
84.1930000000	29
84.2230000000	51
84.2530000000	41
84.2830000000	40
84.3130000000	33
84.3430000000	49
84.3730000000	34
84.4030000000	37
84.4330000000	43
84.4630000000	32
84.4930000000	39
84.5230000000	44
84.5530000000	39
84.5830000000	44
84.6130000000	39
84.6430000000	41
84.6730000000	35
84.7030000000	31
84.7330000000	46
84.7630000000	31
84.7930000000	43
84.8230000000	32
84.8530000000	48
84.8830000000	45
84.9130000000	32
84.9430000000	33
84.9730000000	41
85.0030000000	39
85.0330000000	34
85.0630000000	46
85.0930000000	38
85.1230000000	37
85.1530000000	36
85.1830000000	39
85.2130000000	40
85.2430000000	34
85.2730000000	38
85.3030000000	48
85.3330000000	34
85.3630000000	43
85.3930000000	32
85.4230000000	41
85.4530000000	37
85.4830000000	47
85.5130000000	41
85.5430000000	45
85.5730000000	41
85.6030000000	35
85.6330000000	55
85.6630000000	35
85.6930000000	31
85.7230000000	47
85.7530000000	39
85.7830000000	53
85.8130000000	46
85.8430000000	40
85.8730000000	40
85.9030000000	35
85.9330000000	43
85.9630000000	38
85.9930000000	46
86.0230000000	41
86.0530000000	38
86.0830000000	48
86.1130000000	41
86.1430000000	35
86.1730000000	41
86.2030000000	40
86.2330000000	36
86.2630000000	37
86.2930000000	39
86.3230000000	38
86.3530000000	49
86.3830000000	43
86.4130000000	39
86.4430000000	36
86.4730000000	31
86.5030000000	39
86.5330000000	46
86.5630000000	36
86.5930000000	40
86.6230000000	42
86.6530000000	44
86.6830000000	39
86.7130000000	35
86.7430000000	38
86.7730000000	47
86.8030000000	44
86.8330000000	50
86.8630000000	46
86.8930000000	39
86.9230000000	46
86.9530000000	52
86.9830000000	39
87.0130000000	45
87.0430000000	40
87.0730000000	43
87.1030000000	44
87.1330000000	33
87.1630000000	34
87.1930000000	41
87.2230000000	40
87.2530000000	34
87.2830000000	36
87.3130000000	35
87.3430000000	38
87.3730000000	35
87.4030000000	34
87.4330000000	35
87.4630000000	41
87.4930000000	39
87.5230000000	53
87.5530000000	44
87.5830000000	31
87.6130000000	55
87.6430000000	42
87.6730000000	39
87.7030000000	49
87.7330000000	43
87.7630000000	40
87.7930000000	35
87.8230000000	44
87.8530000000	42
87.8830000000	43
87.9130000000	45
87.9430000000	31
87.9730000000	44
88.0030000000	44
88.0330000000	35
88.0630000000	28
88.0930000000	42
88.1230000000	54
88.1530000000	40
88.1830000000	41
88.2130000000	45
88.2430000000	58
88.2730000000	61
88.3030000000	45
88.3330000000	42
88.3630000000	44
88.3930000000	46
88.4230000000	52
88.4530000000	45
88.4830000000	50
88.5130000000	34
88.5430000000	48
88.5730000000	36
88.6030000000	36
88.6330000000	38
88.6630000000	40
88.6930000000	39
88.7230000000	43
88.7530000000	45
88.7830000000	43
88.8130000000	40
88.8430000000	27
88.8730000000	26
88.9030000000	42
88.9330000000	44
88.9630000000	35
88.9930000000	29
89.0230000000	44
89.0530000000	34
89.0830000000	46
89.1130000000	30
89.1430000000	54
89.1730000000	38
89.2030000000	31
89.2330000000	48
89.2630000000	44
89.2930000000	48
89.3230000000	41
89.3530000000	53
89.3830000000	46
89.4130000000	52
89.4430000000	57
89.4730000000	57
89.5030000000	51
89.5330000000	47
89.5630000000	54
89.5930000000	50
89.6230000000	32
89.6530000000	38
89.6830000000	51
89.7130000000	42
89.7430000000	47
89.7730000000	39
89.8030000000	35
89.8330000000	43
89.8630000000	35
89.8930000000	46
89.9230000000	43
89.9530000000	29
89.9830000000	39
90.0130000000	55
90.0430000000	29
90.0730000000	41
90.1030000000	46
90.1330000000	45
90.1630000000	34
90.1930000000	42
90.2230000000	36
90.2530000000	31
90.2830000000	49
90.3130000000	50
90.3430000000	48
90.3730000000	49
90.4030000000	35
90.4330000000	33
90.4630000000	34
90.4930000000	41
90.5230000000	50
90.5530000000	40
90.5830000000	54
90.6130000000	38
90.6430000000	39
90.6730000000	36
90.7030000000	40
90.7330000000	32
90.7630000000	35
90.7930000000	36
90.8230000000	39
90.8530000000	53
90.8830000000	30
90.9130000000	28
90.9430000000	31
90.9730000000	40
91.0030000000	28
91.0330000000	38
91.0630000000	37
91.0930000000	39
91.1230000000	32
91.1530000000	36
91.1830000000	44
91.2130000000	47
91.2430000000	38
91.2730000000	38
91.3030000000	37
91.3330000000	39
91.3630000000	34
91.3930000000	39
91.4230000000	39
91.4530000000	43
91.4830000000	39
91.5130000000	35
91.5430000000	37
91.5730000000	35
91.6030000000	36
91.6330000000	42
91.6630000000	38
91.6930000000	31
91.7230000000	36
91.7530000000	36
91.7830000000	41
91.8130000000	40
91.8430000000	43
91.8730000000	37
91.9030000000	37
91.9330000000	49
91.9630000000	40
91.9930000000	36
92.0230000000	44
92.0530000000	43
92.0830000000	39
92.1130000000	32
92.1430000000	33
92.1730000000	39
92.2030000000	41
92.2330000000	20
92.2630000000	41
92.2930000000	35
92.3230000000	45
92.3530000000	41
92.3830000000	43
92.4130000000	35
92.4430000000	32
92.4730000000	44
92.5030000000	46
92.5330000000	33
92.5630000000	37
92.5930000000	28
92.6230000000	34
92.6530000000	43
92.6830000000	38
92.7130000000	40
92.7430000000	36
92.7730000000	29
92.8030000000	42
92.8330000000	38
92.8630000000	35
92.8930000000	40
92.9230000000	36
92.9530000000	36
92.9830000000	31
93.0130000000	33
93.0430000000	34
93.0730000000	33
93.1030000000	37
93.1330000000	35
93.1630000000	38
93.1930000000	50
93.2230000000	45
93.2530000000	31
93.2830000000	28
93.3130000000	37
93.3430000000	42
93.3730000000	37
93.4030000000	34
93.4330000000	38
93.4630000000	45
93.4930000000	43
93.5230000000	33
93.5530000000	33
93.5830000000	37
93.6130000000	41
93.6430000000	52
93.6730000000	47
93.7030000000	44
93.7330000000	54
93.7630000000	27
93.7930000000	42
93.8230000000	51
93.8530000000	45
93.8830000000	35
93.9130000000	48
93.9430000000	41
93.9730000000	42
94.0030000000	39
94.0330000000	36
94.0630000000	43
94.0930000000	39
94.1230000000	47
94.1530000000	39
94.1830000000	33
94.2130000000	32
94.2430000000	33
94.2730000000	31
94.3030000000	38
94.3330000000	43
94.3630000000	29
94.3930000000	32
94.4230000000	39
94.4530000000	41
94.4830000000	39
94.5130000000	36
94.5430000000	32
94.5730000000	40
94.6030000000	39
94.6330000000	34
94.6630000000	39
94.6930000000	41
94.7230000000	38
94.7530000000	41
94.7830000000	43
94.8130000000	38
94.8430000000	39
94.8730000000	37
94.9030000000	34
94.9330000000	33
94.9630000000	31
94.9930000000	38
95.0230000000	32
95.0530000000	38
95.0830000000	40
95.1130000000	33
95.1430000000	45
95.1730000000	46
95.2030000000	35
95.2330000000	38
95.2630000000	35
95.2930000000	53
95.3230000000	28
95.3530000000	39
95.3830000000	47
95.4130000000	31
95.4430000000	45
95.4730000000	30
95.5030000000	48
95.5330000000	42
95.5630000000	50
95.5930000000	43
95.6230000000	45
95.6530000000	41
95.6830000000	36
95.7130000000	29
95.7430000000	35
95.7730000000	42
95.8030000000	30
95.8330000000	40
95.8630000000	31
95.8930000000	42
95.9230000000	41
95.9530000000	38
95.9830000000	32
96.0130000000	35
96.0430000000	32
96.0730000000	28
96.1030000000	36
96.1330000000	41
96.1630000000	41
96.1930000000	45
96.2230000000	36
96.2530000000	36
96.2830000000	28
96.3130000000	37
96.3430000000	41
96.3730000000	38
96.4030000000	37
96.4330000000	41
96.4630000000	33
96.4930000000	34
96.5230000000	49
96.5530000000	38
96.5830000000	43
96.6130000000	50
96.6430000000	37
96.6730000000	24
96.7030000000	47
96.7330000000	29
96.7630000000	38
96.7930000000	35
96.8230000000	42
96.8530000000	36
96.8830000000	39
96.9130000000	34
96.9430000000	55
96.9730000000	42
97.0030000000	44
97.0330000000	33
97.0630000000	45
97.0930000000	44
97.1230000000	32
97.1530000000	36
97.1830000000	35
97.2130000000	39
97.2430000000	39
97.2730000000	33
97.3030000000	40
97.3330000000	39
97.3630000000	43
97.3930000000	34
97.4230000000	31
97.4530000000	41
97.4830000000	32
97.5130000000	44
97.5430000000	38
97.5730000000	39
97.6030000000	44
97.6330000000	38
97.6630000000	25
97.6930000000	28
97.7230000000	46
97.7530000000	36
97.7830000000	38
97.8130000000	53
97.8430000000	35
97.8730000000	40
97.9030000000	39
97.9330000000	38
97.9630000000	46
97.9930000000	32
98.0230000000	39
98.0530000000	41
98.0830000000	33
98.1130000000	34
98.1430000000	25
98.1730000000	35
98.2030000000	37
98.2330000000	45
98.2630000000	42
98.2930000000	35
98.3230000000	41
98.3530000000	34
98.3830000000	34
98.4130000000	37
98.4430000000	34
98.4730000000	49
98.5030000000	41
98.5330000000	40
98.5630000000	37
98.5930000000	35
98.6230000000	43
98.6530000000	39
98.6830000000	35
98.7130000000	33
98.7430000000	32
98.7730000000	33
98.8030000000	29
98.8330000000	32
98.8630000000	45
98.8930000000	37
98.9230000000	25
98.9530000000	28
98.9830000000	36
99.0130000000	38
99.0430000000	34
99.0730000000	36
99.1030000000	33
99.1330000000	43
99.1630000000	36
99.1930000000	25
99.2230000000	32
99.2530000000	38
99.2830000000	38
99.3130000000	37
99.3430000000	46
99.3730000000	46
99.4030000000	32
99.4330000000	40
99.4630000000	42
99.4930000000	38
99.5230000000	32
99.5530000000	39
99.5830000000	41
99.6130000000	33
99.6430000000	45
99.6730000000	33
99.7030000000	42
99.7330000000	39
99.7630000000	39
99.7930000000	45
99.8230000000	40
99.8530000000	32
99.8830000000	31
99.9130000000	33
99.9430000000	31
99.9730000000	30
100.0030000000	31
100.0330000000	32
100.0630000000	43
100.0930000000	41
100.1230000000	37
100.1530000000	34
100.1830000000	38
100.2130000000	44
100.2430000000	31
100.2730000000	38
100.3030000000	40
100.3330000000	36
100.3630000000	38
100.3930000000	32
100.4230000000	39
100.4530000000	32
100.4830000000	37
100.5130000000	45
100.5430000000	31
100.5730000000	35
100.6030000000	31
100.6330000000	45
100.6630000000	40
100.6930000000	39
100.7230000000	31
100.7530000000	31
100.7830000000	35
100.8130000000	51
100.8430000000	34
100.8730000000	38
100.9030000000	35
100.9330000000	35
100.9630000000	46
100.9930000000	44
101.0230000000	31
101.0530000000	37
101.0830000000	38
101.1130000000	36
101.1430000000	34
101.1730000000	31
101.2030000000	43
101.2330000000	48
101.2630000000	42
101.2930000000	44
101.3230000000	36
101.3530000000	37
101.3830000000	35
101.4130000000	33
101.4430000000	34
101.4730000000	39
101.5030000000	36
101.5330000000	31
101.5630000000	37
101.5930000000	34
101.6230000000	31
101.6530000000	40
101.6830000000	40
101.7130000000	28
101.7430000000	41
101.7730000000	43
101.8030000000	28
101.8330000000	39
101.8630000000	41
101.8930000000	33
101.9230000000	32
101.9530000000	39
101.9830000000	44
102.0130000000	30
102.0430000000	35
102.0730000000	35
102.1030000000	25
102.1330000000	43
102.1630000000	29
102.1930000000	38
102.2230000000	43
102.2530000000	31
102.2830000000	42
102.3130000000	28
102.3430000000	34
102.3730000000	45
102.4030000000	31
102.4330000000	44
102.4630000000	40
102.4930000000	29
102.5230000000	26
102.5530000000	50
102.5830000000	45
102.6130000000	43
102.6430000000	38
102.6730000000	39
102.7030000000	33
102.7330000000	30
102.7630000000	48
102.7930000000	37
102.8230000000	27
102.8530000000	41
102.8830000000	39
102.9130000000	32
102.9430000000	49
102.9730000000	50
103.0030000000	48
103.0330000000	49
103.0630000000	43
103.0930000000	36
103.1230000000	38
103.1530000000	39
103.1830000000	36
103.2130000000	39
103.2430000000	39
103.2730000000	30
103.3030000000	30
103.3330000000	43
103.3630000000	46
103.3930000000	45
103.4230000000	42
103.4530000000	34
103.4830000000	30
103.5130000000	47
103.5430000000	42
103.5730000000	40
103.6030000000	46
103.6330000000	32
103.6630000000	31
103.6930000000	30
103.7230000000	42
103.7530000000	31
103.7830000000	40
103.8130000000	49
103.8430000000	39
103.8730000000	46
103.9030000000	39
103.9330000000	54
103.9630000000	39
103.9930000000	46
104.0230000000	29
104.0530000000	36
104.0830000000	46
104.1130000000	46
104.1430000000	45
104.1730000000	43
104.2030000000	35
104.2330000000	32
104.2630000000	41
104.2930000000	47
104.3230000000	37
104.3530000000	39
104.3830000000	42
104.4130000000	44
104.4430000000	39
104.4730000000	44
104.5030000000	42
104.5330000000	43
104.5630000000	44
104.5930000000	39
104.6230000000	36
104.6530000000	34
104.6830000000	40
104.7130000000	36
104.7430000000	36
104.7730000000	41
104.8030000000	29
104.8330000000	45
104.8630000000	46
104.8930000000	45
104.9230000000	47
104.9530000000	40
104.9830000000	39
105.0130000000	43
105.0430000000	41
105.0730000000	37
105.1030000000	35
105.1330000000	37
105.1630000000	37
105.1930000000	29
105.2230000000	26
105.2530000000	46
105.2830000000	28
105.3130000000	30
105.3430000000	40
105.3730000000	48
105.4030000000	35
105.4330000000	39
105.4630000000	34
105.4930000000	38
105.5230000000	41
105.5530000000	38
105.5830000000	31
105.6130000000	40
105.6430000000	36
105.6730000000	37
105.7030000000	32
105.7330000000	39
105.7630000000	31
105.7930000000	27
105.8230000000	41
105.8530000000	35
105.8830000000	30
105.9130000000	40
105.9430000000	41
105.9730000000	31
106.0030000000	44
106.0330000000	50
106.0630000000	39
106.0930000000	42
106.1230000000	32
106.1530000000	38
106.1830000000	35
106.2130000000	30
106.2430000000	23
106.2730000000	31
106.3030000000	29
106.3330000000	40
106.3630000000	47
106.3930000000	39
106.4230000000	53
106.4530000000	35
106.4830000000	61
106.5130000000	40
106.5430000000	46
106.5730000000	49
106.6030000000	27
106.6330000000	40
106.6630000000	44
106.6930000000	39
106.7230000000	40
106.7530000000	41
106.7830000000	50
106.8130000000	44
106.8430000000	47
106.8730000000	48
106.9030000000	43
106.9330000000	28
106.9630000000	34
106.9930000000	43
107.0230000000	27
107.0530000000	43
107.0830000000	31
107.1130000000	39
107.1430000000	36
107.1730000000	30
107.2030000000	32
107.2330000000	34
107.2630000000	31
107.2930000000	34
107.3230000000	32
107.3530000000	40
107.3830000000	40
107.4130000000	37
107.4430000000	34
107.4730000000	35
107.5030000000	39
107.5330000000	36
107.5630000000	37
107.5930000000	46
107.6230000000	39
107.6530000000	39
107.6830000000	41
107.7130000000	31
107.7430000000	34
107.7730000000	40
107.8030000000	39
107.8330000000	43
107.8630000000	42
107.8930000000	43
107.9230000000	44
107.9530000000	37
107.9830000000	32
108.0130000000	35
108.0430000000	45
108.0730000000	42
108.1030000000	48
108.1330000000	30
108.1630000000	35
108.1930000000	27
108.2230000000	30
108.2530000000	34
108.2830000000	42
108.3130000000	33
108.3430000000	34
108.3730000000	36
108.4030000000	36
108.4330000000	33
108.4630000000	40
108.4930000000	40
108.5230000000	31
108.5530000000	43
108.5830000000	46
108.6130000000	40
108.6430000000	34
108.6730000000	41
108.7030000000	31
108.7330000000	30
108.7630000000	43
108.7930000000	50
108.8230000000	36
108.8530000000	38
108.8830000000	30
108.9130000000	33
108.9430000000	42
108.9730000000	38
109.0030000000	27
109.0330000000	34
109.0630000000	37
109.0930000000	42
109.1230000000	45
109.1530000000	32
109.1830000000	45
109.2130000000	34
109.2430000000	38
109.2730000000	35
109.3030000000	37
109.3330000000	34
109.3630000000	43
109.3930000000	36
109.4230000000	47
109.4530000000	41
109.4830000000	32
109.5130000000	45
109.5430000000	42
109.5730000000	36
109.6030000000	43
109.6330000000	35
109.6630000000	52
109.6930000000	40
109.7230000000	48
109.7530000000	41
109.7830000000	42
109.8130000000	43
109.8430000000	35
109.8730000000	41
109.9030000000	38
109.9330000000	37
109.9630000000	38
109.9930000000	39
110.0230000000	34
110.0530000000	42
110.0830000000	45
110.1130000000	33
110.1430000000	36
110.1730000000	35
110.2030000000	43
110.2330000000	31
110.2630000000	48
110.2930000000	57
110.3230000000	46
110.3530000000	57
110.3830000000	34
110.4130000000	40
110.4430000000	46
110.4730000000	37
110.5030000000	36
110.5330000000	25
110.5630000000	39
110.5930000000	57
110.6230000000	43
110.6530000000	40
110.6830000000	31
110.7130000000	38
110.7430000000	48
110.7730000000	40
110.8030000000	43
110.8330000000	50
110.8630000000	40
110.8930000000	29
110.9230000000	42
110.9530000000	40
110.9830000000	41
111.0130000000	46
111.0430000000	42
111.0730000000	37
111.1030000000	39
111.1330000000	36
111.1630000000	33
111.1930000000	37
111.2230000000	37
111.2530000000	34
111.2830000000	33
111.3130000000	30
111.3430000000	32
111.3730000000	45
111.4030000000	45
111.4330000000	36
111.4630000000	35
111.4930000000	39
111.5230000000	35
111.5530000000	34
111.5830000000	38
111.6130000000	48
111.6430000000	21
111.6730000000	33
111.7030000000	31
111.7330000000	40
111.7630000000	23
111.7930000000	52
111.8230000000	37
111.8530000000	30
111.8830000000	46
111.9130000000	44
111.9430000000	41
111.9730000000	34
112.0030000000	41
112.0330000000	44
112.0630000000	37
112.0930000000	36
112.1230000000	45
112.1530000000	35
112.1830000000	31
112.2130000000	46
112.2430000000	29
112.2730000000	35
112.3030000000	41
112.3330000000	37
112.3630000000	44
112.3930000000	39
112.4230000000	42
112.4530000000	37
112.4830000000	38
112.5130000000	39
112.5430000000	25
112.5730000000	39
112.6030000000	34
112.6330000000	35
112.6630000000	41
112.6930000000	42
112.7230000000	33
112.7530000000	35
112.7830000000	47
112.8130000000	53
112.8430000000	57
112.8730000000	40
112.9030000000	49
112.9330000000	57
112.9630000000	60
112.9930000000	56
113.0230000000	55
113.0530000000	59
113.0830000000	51
113.1130000000	58
113.1430000000	54
113.1730000000	41
113.2030000000	55
113.2330000000	60
113.2630000000	49
113.2930000000	59
113.3230000000	59
113.3530000000	54
113.3830000000	45
113.4130000000	45
113.4430000000	50
113.4730000000	45
113.5030000000	45
113.5330000000	45
113.5630000000	48
113.5930000000	39
113.6230000000	42
113.6530000000	31
113.6830000000	41
113.7130000000	46
113.7430000000	34
113.7730000000	41
113.8030000000	38
113.8330000000	41
113.8630000000	46
113.8930000000	45
113.9230000000	44
113.9530000000	50
113.9830000000	38
114.0130000000	38
114.0430000000	43
114.0730000000	33
114.1030000000	30
114.1330000000	39
114.1630000000	44
114.1930000000	43
114.2230000000	53
114.2530000000	46
114.2830000000	37
114.3130000000	47
114.3430000000	38
114.3730000000	46
114.4030000000	54
114.4330000000	50
114.4630000000	1
114.4930000000	1
114.5230000000	1
114.5530000000	1
114.5830000000	1
