0.3130000000	1
0.3430000000	1
0.3730000000	2
0.4030000000	1
0.4330000000	1
0.4630000000	1
0.4930000000	1
0.5230000000	1
0.5530000000	1
0.5830000000	2
0.6130000000	1
0.6430000000	1
0.6730000000	1
0.7030000000	1
0.7330000000	1
0.7630000000	2
0.7930000000	2
0.8230000000	1
0.8530000000	1
0.8830000000	1
0.9130000000	1
0.9430000000	3
0.9730000000	1
1.0030000000	1
1.0330000000	1
1.0630000000	1
1.0930000000	3
1.1230000000	1
1.1530000000	1
1.1830000000	1
1.2130000000	1
1.2430000000	1
1.2730000000	1
1.3030000000	2
1.3330000000	1
1.3630000000	1
1.3930000000	1
1.4230000000	1
1.4530000000	1
1.4830000000	2
1.5130000000	1
1.5430000000	1
1.5730000000	1
1.6030000000	1
1.6330000000	1
1.6630000000	1
1.6930000000	1
1.7230000000	1
1.7530000000	2
1.7830000000	1
1.8130000000	1
1.8430000000	1
1.8730000000	1
1.9030000000	1
1.9330000000	2
1.9630000000	1
1.9930000000	1
2.0230000000	1
2.0530000000	2
2.0830000000	2
2.1130000000	1
2.1430000000	1
2.1730000000	1
2.2030000000	3
2.2330000000	2
2.2630000000	1
2.2930000000	2
2.3230000000	1
2.3530000000	1
2.3830000000	2
2.4130000000	2
2.4430000000	2
2.4730000000	1
2.5030000000	1
2.5330000000	1
2.5630000000	1
2.5930000000	1
2.6230000000	1
2.6530000000	1
2.6830000000	2
2.7130000000	1
2.7430000000	1
2.7730000000	2
2.8030000000	2
2.8330000000	2
2.8630000000	1
2.8930000000	1
2.9230000000	2
2.9530000000	1
2.9830000000	2
3.0130000000	1
3.0430000000	1
3.0730000000	1
3.1030000000	1
3.1330000000	2
3.1630000000	1
3.1930000000	1
3.2230000000	1
3.2530000000	1
3.2830000000	3
3.3130000000	3
3.3430000000	2
3.3730000000	2
3.4030000000	1
3.4330000000	1
3.4630000000	3
3.4930000000	1
3.5230000000	2
3.5530000000	2
3.5830000000	1
3.6130000000	2
3.6430000000	1
3.6730000000	1
3.7030000000	1
3.7330000000	1
3.7630000000	3
3.7930000000	2
3.8230000000	1
3.8530000000	2
3.8830000000	1
3.9130000000	1
3.9430000000	3
3.9730000000	2
4.0030000000	4
4.0330000000	2
4.0630000000	1
4.0930000000	1
4.1230000000	2
4.1530000000	4
4.1830000000	3
4.2130000000	1
4.2430000000	5
4.2730000000	2
4.3030000000	5
4.3330000000	5
4.3630000000	8
4.3930000000	3
4.4230000000	10
4.4530000000	8
4.4830000000	17
4.5130000000	31
4.5430000000	38
4.5730000000	63
4.6030000000	97
4.6330000000	108
4.6630000000	114
4.6930000000	118
4.7230000000	124
4.7530000000	149
4.7830000000	126
4.8130000000	142
4.8430000000	125
4.8730000000	154
4.9030000000	139
4.9330000000	135
4.9630000000	140
4.9930000000	128
5.0230000000	154
5.0530000000	145
5.0830000000	125
5.1130000000	139
5.1430000000	149
5.1730000000	150
5.2030000000	122
5.2330000000	139
5.2630000000	149
5.2930000000	135
5.3230000000	136
5.3530000000	150
5.3830000000	162
5.4130000000	137
5.4430000000	148
5.4730000000	137
5.5030000000	152
5.5330000000	132
5.5630000000	169
5.5930000000	132
5.6230000000	147
5.6530000000	132
5.6830000000	158
5.7130000000	158
5.7430000000	159
5.7730000000	143
5.8030000000	154
5.8330000000	140
5.8630000000	163
5.8930000000	152
5.9230000000	172
5.9530000000	151
5.9830000000	151
6.0130000000	135
6.0430000000	157
6.0730000000	133
6.1030000000	159
6.1330000000	128
6.1630000000	133
6.1930000000	151
6.2230000000	151
6.2530000000	148
6.2830000000	155
6.3130000000	158
6.3430000000	140
6.3730000000	140
6.4030000000	136
6.4330000000	153
6.4630000000	150
6.4930000000	172
6.5230000000	157
6.5530000000	144
6.5830000000	140
6.6130000000	140
6.6430000000	140
6.6730000000	144
6.7030000000	140
6.7330000000	131
6.7630000000	140
6.7930000000	152
6.8230000000	134
6.8530000000	154
6.8830000000	156
6.9130000000	139
6.9430000000	146
6.9730000000	159
7.0030000000	142
7.0330000000	144
7.0630000000	146
7.0930000000	155
7.1230000000	130
7.1530000000	119
7.1830000000	140
7.2130000000	156
7.2430000000	145
7.2730000000	165
7.3030000000	147
7.3330000000	126
7.3630000000	130
7.3930000000	130
7.4230000000	149
7.4530000000	148
7.4830000000	130
7.5130000000	134
7.5430000000	159
7.5730000000	142
7.6030000000	142
7.6330000000	166
7.6630000000	164
7.6930000000	149
7.7230000000	142
7.7530000000	145
7.7830000000	154
7.8130000000	144
7.8430000000	137
7.8730000000	153
7.9030000000	153
7.9330000000	139
7.9630000000	139
7.9930000000	142
8.0230000000	140
8.0530000000	143
8.0830000000	132
8.1130000000	136
8.1430000000	130
8.1730000000	167
8.2030000000	142
8.2330000000	153
8.2630000000	160
8.2930000000	138
8.3230000000	122
8.3530000000	139
8.3830000000	149
8.4130000000	164
8.4430000000	158
8.4730000000	173
8.5030000000	155
8.5330000000	145
8.5630000000	159
8.5930000000	134
8.6230000000	150
8.6530000000	155
8.6830000000	133
8.7130000000	136
8.7430000000	142
8.7730000000	168
8.8030000000	146
8.8330000000	154
8.8630000000	130
8.8930000000	127
8.9230000000	151
8.9530000000	136
8.9830000000	139
9.0130000000	153
9.0430000000	154
9.0730000000	164
9.1030000000	149
9.1330000000	140
9.1630000000	136
9.1930000000	162
9.2230000000	133
9.2530000000	149
9.2830000000	139
9.3130000000	146
9.3430000000	144
9.3730000000	146
9.4030000000	135
9.4330000000	154
9.4630000000	131
9.4930000000	154
9.5230000000	146
9.5530000000	157
9.5830000000	147
9.6130000000	157
9.6430000000	150
9.6730000000	145
9.7030000000	152
9.7330000000	143
9.7630000000	161
9.7930000000	169
9.8230000000	169
9.8530000000	145
9.8830000000	147
9.9130000000	171
9.9430000000	141
9.9730000000	129
10.0030000000	146
10.0330000000	120
10.0630000000	158
10.0930000000	144
10.1230000000	148
10.1530000000	134
10.1830000000	154
10.2130000000	131
10.2430000000	138
10.2730000000	146
10.3030000000	150
10.3330000000	135
10.3630000000	136
10.3930000000	147
10.4230000000	159
10.4530000000	146
10.4830000000	144
10.5130000000	138
10.5430000000	156
10.5730000000	154
10.6030000000	136
10.6330000000	143
10.6630000000	156
10.6930000000	170
10.7230000000	151
10.7530000000	172
10.7830000000	161
10.8130000000	143
10.8430000000	136
10.8730000000	129
10.9030000000	126
10.9330000000	140
10.9630000000	159
10.9930000000	139
11.0230000000	154
11.0530000000	138
11.0830000000	135
11.1130000000	162
11.1430000000	149
11.1730000000	140
11.2030000000	163
11.2330000000	146
11.2630000000	133
11.2930000000	134
11.3230000000	150
11.3530000000	157
11.3830000000	137
11.4130000000	154
11.4430000000	140
11.4730000000	134
11.5030000000	164
11.5330000000	142
11.5630000000	152
11.5930000000	158
11.6230000000	170
11.6530000000	143
11.6830000000	146
11.7130000000	141
11.7430000000	147
11.7730000000	148
11.8030000000	151
11.8330000000	136
11.8630000000	173
11.8930000000	153
11.9230000000	170
11.9530000000	161
11.9830000000	146
12.0130000000	139
12.0430000000	141
12.0730000000	153
12.1030000000	151
12.1330000000	141
12.1630000000	129
12.1930000000	139
12.2230000000	138
12.2530000000	131
12.2830000000	135
12.3130000000	146
12.3430000000	147
12.3730000000	148
12.4030000000	149
12.4330000000	155
12.4630000000	147
12.4930000000	142
12.5230000000	137
12.5530000000	153
12.5830000000	152
12.6130000000	143
12.6430000000	131
12.6730000000	135
12.7030000000	126
12.7330000000	150
12.7630000000	146
12.7930000000	142
12.8230000000	146
12.8530000000	148
12.8830000000	136
12.9130000000	142
12.9430000000	154
12.9730000000	142
13.0030000000	150
13.0330000000	151
13.0630000000	156
13.0930000000	161
13.1230000000	148
13.1530000000	140
13.1830000000	129
13.2130000000	152
13.2430000000	153
13.2730000000	151
13.3030000000	132
13.3330000000	155
13.3630000000	155
13.3930000000	137
13.4230000000	163
13.4530000000	153
13.4830000000	168
13.5130000000	147
13.5430000000	143
13.5730000000	144
13.6030000000	150
13.6330000000	137
13.6630000000	135
13.6930000000	166
13.7230000000	127
13.7530000000	146
13.7830000000	151
13.8130000000	141
13.8430000000	135
13.8730000000	145
13.9030000000	129
13.9330000000	134
13.9630000000	131
13.9930000000	141
14.0230000000	152
14.0530000000	163
14.0830000000	138
14.1130000000	130
14.1430000000	137
14.1730000000	134
14.2030000000	133
14.2330000000	151
14.2630000000	135
14.2930000000	148
14.3230000000	149
14.3530000000	149
14.3830000000	139
14.4130000000	149
14.4430000000	153
14.4730000000	134
14.5030000000	154
14.5330000000	132
14.5630000000	138
14.5930000000	139
14.6230000000	160
14.6530000000	145
14.6830000000	153
14.7130000000	135
14.7430000000	156
14.7730000000	174
14.8030000000	175
14.8330000000	154
14.8630000000	150
14.8930000000	150
14.9230000000	170
14.9530000000	126
14.9830000000	148
15.0130000000	145
15.0430000000	132
15.0730000000	167
15.1030000000	148
15.1330000000	153
15.1630000000	150
15.1930000000	132
15.2230000000	164
15.2530000000	149
15.2830000000	157
15.3130000000	150
15.3430000000	150
15.3730000000	137
15.4030000000	144
15.4330000000	158
15.4630000000	153
15.4930000000	143
15.5230000000	154
15.5530000000	152
15.5830000000	162
15.6130000000	149
15.6430000000	146
15.6730000000	131
15.7030000000	178
15.7330000000	146
15.7630000000	146
15.7930000000	140
15.8230000000	159
15.8530000000	137
15.8830000000	174
15.9130000000	129
15.9430000000	150
15.9730000000	133
16.0030000000	137
16.0330000000	136
16.0630000000	134
16.0930000000	160
16.1230000000	140
16.1530000000	144
16.1830000000	143
16.2130000000	146
16.2430000000	149
16.2730000000	151
16.3030000000	151
16.3330000000	148
16.3630000000	146
16.3930000000	166
16.4230000000	139
16.4530000000	146
16.4830000000	130
16.5130000000	145
16.5430000000	167
16.5730000000	116
16.6030000000	161
16.6330000000	149
16.6630000000	153
16.6930000000	135
16.7230000000	122
16.7530000000	133
16.7830000000	158
16.8130000000	138
16.8430000000	141
16.8730000000	125
16.9030000000	134
16.9330000000	133
16.9630000000	151
16.9930000000	137
17.0230000000	147
17.0530000000	138
17.0830000000	145
17.1130000000	151
17.1430000000	130
17.1730000000	159
17.2030000000	149
17.2330000000	158
17.2630000000	131
17.2930000000	141
17.3230000000	152
17.3530000000	137
17.3830000000	143
17.4130000000	154
17.4430000000	152
17.4730000000	161
17.5030000000	152
17.5330000000	143
17.5630000000	146
17.5930000000	147
17.6230000000	149
17.6530000000	155
17.6830000000	139
17.7130000000	133
17.7430000000	128
17.7730000000	126
17.8030000000	130
17.8330000000	136
17.8630000000	167
17.8930000000	159
17.9230000000	136
17.9530000000	143
17.9830000000	142
18.0130000000	132
18.0430000000	133
18.0730000000	163
18.1030000000	147
18.1330000000	130
18.1630000000	174
18.1930000000	149
18.2230000000	128
18.2530000000	142
18.2830000000	124
18.3130000000	136
18.3430000000	135
18.3730000000	138
18.4030000000	118
18.4330000000	144
18.4630000000	137
18.4930000000	143
18.5230000000	125
18.5530000000	142
18.5830000000	151
18.6130000000	142
18.6430000000	155
18.6730000000	153
18.7030000000	140
18.7330000000	153
18.7630000000	156
18.7930000000	153
18.8230000000	159
18.8530000000	143
18.8830000000	139
18.9130000000	138
18.9430000000	148
18.9730000000	141
19.0030000000	152
19.0330000000	146
19.0630000000	153
19.0930000000	139
19.1230000000	154
19.1530000000	162
19.1830000000	152
19.2130000000	134
19.2430000000	165
19.2730000000	141
19.3030000000	149
19.3330000000	165
19.3630000000	149
19.3930000000	125
19.4230000000	160
19.4530000000	151
19.4830000000	144
19.5130000000	137
19.5430000000	143
19.5730000000	141
19.6030000000	149
19.6330000000	155
19.6630000000	142
19.6930000000	146
19.7230000000	159
19.7530000000	158
19.7830000000	151
19.8130000000	141
19.8430000000	139
19.8730000000	152
19.9030000000	136
19.9330000000	155
19.9630000000	146
19.9930000000	113
20.0230000000	159
20.0530000000	116
20.0830000000	154
20.1130000000	123
20.1430000000	142
20.1730000000	158
20.2030000000	144
20.2330000000	147
20.2630000000	141
20.2930000000	153
20.3230000000	141
20.3530000000	143
20.3830000000	144
20.4130000000	150
20.4430000000	162
20.4730000000	153
20.5030000000	138
20.5330000000	138
20.5630000000	163
20.5930000000	184
20.6230000000	193
20.6530000000	213
20.6830000000	222
20.7130000000	324
20.7430000000	422
20.7730000000	565
20.8030000000	786
20.8330000000	1006
20.8630000000	1184
20.8930000000	1124
20.9230000000	830
20.9530000000	642
20.9830000000	395
21.0130000000	301
21.0430000000	246
21.0730000000	224
21.1030000000	220
21.1330000000	179
21.1630000000	163
21.1930000000	142
21.2230000000	153
21.2530000000	165
21.2830000000	163
21.3130000000	180
21.3430000000	161
21.3730000000	162
21.4030000000	152
21.4330000000	175
21.4630000000	148
21.4930000000	157
21.5230000000	173
21.5530000000	162
21.5830000000	156
21.6130000000	152
21.6430000000	139
21.6730000000	156
21.7030000000	181
21.7330000000	159
21.7630000000	146
21.7930000000	172
21.8230000000	155
21.8530000000	167
21.8830000000	160
21.9130000000	149
21.9430000000	156
21.9730000000	139
22.0030000000	140
22.0330000000	160
22.0630000000	150
22.0930000000	170
22.1230000000	192
22.1530000000	173
22.1830000000	127
22.2130000000	146
22.2430000000	161
22.2730000000	177
22.3030000000	170
22.3330000000	156
22.3630000000	161
22.3930000000	177
22.4230000000	165
22.4530000000	163
22.4830000000	169
22.5130000000	166
22.5430000000	169
22.5730000000	162
22.6030000000	151
22.6330000000	160
22.6630000000	177
22.6930000000	173
22.7230000000	155
22.7530000000	143
22.7830000000	151
22.8130000000	153
22.8430000000	154
22.8730000000	179
22.9030000000	148
22.9330000000	171
22.9630000000	153
22.9930000000	155
23.0230000000	152
23.0530000000	169
23.0830000000	177
23.1130000000	154
23.1430000000	150
23.1730000000	160
23.2030000000	173
23.2330000000	184
23.2630000000	167
23.2930000000	149
23.3230000000	165
23.3530000000	145
23.3830000000	175
23.4130000000	166
23.4430000000	154
23.4730000000	151
23.5030000000	176
23.5330000000	164
23.5630000000	167
23.5930000000	154
23.6230000000	171
23.6530000000	161
23.6830000000	152
23.7130000000	162
23.7430000000	163
23.7730000000	155
23.8030000000	175
23.8330000000	149
23.8630000000	162
23.8930000000	174
23.9230000000	179
23.9530000000	163
23.9830000000	160
24.0130000000	162
24.0430000000	135
24.0730000000	152
24.1030000000	163
24.1330000000	146
24.1630000000	184
24.1930000000	163
24.2230000000	157
24.2530000000	176
24.2830000000	177
24.3130000000	172
24.3430000000	181
24.3730000000	151
24.4030000000	146
24.4330000000	165
24.4630000000	153
24.4930000000	168
24.5230000000	173
24.5530000000	159
24.5830000000	150
24.6130000000	159
24.6430000000	164
24.6730000000	160
24.7030000000	147
24.7330000000	166
24.7630000000	149
24.7930000000	168
24.8230000000	167
24.8530000000	169
24.8830000000	172
24.9130000000	157
24.9430000000	161
24.9730000000	151
25.0030000000	139
25.0330000000	169
25.0630000000	144
25.0930000000	165
25.1230000000	138
25.1530000000	155
25.1830000000	153
25.2130000000	171
25.2430000000	137
25.2730000000	148
25.3030000000	159
25.3330000000	177
25.3630000000	168
25.3930000000	141
25.4230000000	165
25.4530000000	177
25.4830000000	138
25.5130000000	174
25.5430000000	154
25.5730000000	173
25.6030000000	156
25.6330000000	160
25.6630000000	170
25.6930000000	199
25.7230000000	165
25.7530000000	189
25.7830000000	197
25.8130000000	191
25.8430000000	202
25.8730000000	262
25.9030000000	363
25.9330000000	454
25.9630000000	620
25.9930000000	876
26.0230000000	1278
26.0530000000	1691
26.0830000000	1801
26.1130000000	1601
26.1430000000	1250
26.1730000000	873
26.2030000000	589
26.2330000000	411
26.2630000000	296
26.2930000000	241
26.3230000000	202
26.3530000000	200
26.3830000000	162
26.4130000000	162
26.4430000000	181
26.4730000000	144
26.5030000000	146
26.5330000000	157
26.5630000000	170
26.5930000000	155
26.6230000000	145
26.6530000000	142
26.6830000000	145
26.7130000000	128
26.7430000000	143
26.7730000000	161
26.8030000000	159
26.8330000000	164
26.8630000000	151
26.8930000000	138
26.9230000000	152
26.9530000000	140
26.9830000000	134
27.0130000000	126
27.0430000000	121
27.0730000000	143
27.1030000000	148
27.1330000000	141
27.1630000000	145
27.1930000000	166
27.2230000000	172
27.2530000000	142
27.2830000000	150
27.3130000000	151
27.3430000000	150
27.3730000000	167
27.4030000000	139
27.4330000000	145
27.4630000000	141
27.4930000000	150
27.5230000000	148
27.5530000000	137
27.5830000000	132
27.6130000000	153
27.6430000000	135
27.6730000000	134
27.7030000000	159
27.7330000000	127
27.7630000000	125
27.7930000000	150
27.8230000000	141
27.8530000000	146
27.8830000000	129
27.9130000000	140
27.9430000000	123
27.9730000000	147
28.0030000000	152
28.0330000000	133
28.0630000000	149
28.0930000000	154
28.1230000000	168
28.1530000000	168
28.1830000000	198
28.2130000000	201
28.2430000000	208
28.2730000000	241
28.3030000000	216
28.3330000000	176
28.3630000000	175
28.3930000000	191
28.4230000000	124
28.4530000000	154
28.4830000000	139
28.5130000000	128
28.5430000000	131
28.5730000000	153
28.6030000000	145
28.6330000000	135
28.6630000000	126
28.6930000000	113
28.7230000000	127
28.7530000000	126
28.7830000000	123
28.8130000000	124
28.8430000000	140
28.8730000000	126
28.9030000000	123
28.9330000000	121
28.9630000000	118
28.9930000000	156
29.0230000000	125
29.0530000000	127
29.0830000000	143
29.1130000000	108
29.1430000000	120
29.1730000000	137
29.2030000000	126
29.2330000000	124
29.2630000000	112
29.2930000000	120
29.3230000000	115
29.3530000000	107
29.3830000000	121
29.4130000000	96
29.4430000000	147
29.4730000000	116
29.5030000000	116
29.5330000000	129
29.5630000000	113
29.5930000000	125
29.6230000000	115
29.6530000000	122
29.6830000000	122
29.7130000000	140
29.7430000000	120
29.7730000000	119
29.8030000000	113
29.8330000000	137
29.8630000000	126
29.8930000000	133
29.9230000000	107
29.9530000000	110
29.9830000000	126
30.0130000000	107
30.0430000000	127
30.0730000000	124
30.1030000000	118
30.1330000000	121
30.1630000000	130
30.1930000000	117
30.2230000000	123
30.2530000000	125
30.2830000000	149
30.3130000000	105
30.3430000000	113
30.3730000000	115
30.4030000000	102
30.4330000000	124
30.4630000000	96
30.4930000000	116
30.5230000000	132
30.5530000000	110
30.5830000000	113
30.6130000000	96
30.6430000000	120
30.6730000000	126
30.7030000000	125
30.7330000000	128
30.7630000000	115
30.7930000000	125
30.8230000000	115
30.8530000000	112
30.8830000000	122
30.9130000000	106
30.9430000000	124
30.9730000000	118
31.0030000000	112
31.0330000000	117
31.0630000000	103
31.0930000000	99
31.1230000000	111
31.1530000000	114
31.1830000000	116
31.2130000000	101
31.2430000000	122
31.2730000000	105
31.3030000000	115
31.3330000000	110
31.3630000000	141
31.3930000000	107
31.4230000000	127
31.4530000000	120
31.4830000000	105
31.5130000000	93
31.5430000000	117
31.5730000000	115
31.6030000000	91
31.6330000000	91
31.6630000000	121
31.6930000000	130
31.7230000000	111
31.7530000000	129
31.7830000000	105
31.8130000000	107
31.8430000000	113
31.8730000000	103
31.9030000000	121
31.9330000000	110
31.9630000000	92
31.9930000000	108
32.0230000000	96
32.0530000000	95
32.0830000000	114
32.1130000000	105
32.1430000000	108
32.1730000000	98
32.2030000000	94
32.2330000000	92
32.2630000000	99
32.2930000000	99
32.3230000000	82
32.3530000000	96
32.3830000000	105
32.4130000000	110
32.4430000000	91
32.4730000000	107
32.5030000000	90
32.5330000000	104
32.5630000000	93
32.5930000000	104
32.6230000000	95
32.6530000000	94
32.6830000000	104
32.7130000000	107
32.7430000000	85
32.7730000000	81
32.8030000000	118
32.8330000000	112
32.8630000000	103
32.8930000000	95
32.9230000000	112
32.9530000000	118
32.9830000000	97
33.0130000000	103
33.0430000000	93
33.0730000000	89
33.1030000000	109
33.1330000000	110
33.1630000000	102
33.1930000000	116
33.2230000000	122
33.2530000000	124
33.2830000000	127
33.3130000000	156
33.3430000000	145
33.3730000000	164
33.4030000000	195
33.4330000000	267
33.4630000000	368
33.4930000000	509
33.5230000000	787
33.5530000000	1181
33.5830000000	1804
33.6130000000	2305
33.6430000000	2745
33.6730000000	2712
33.7030000000	2219
33.7330000000	1698
33.7630000000	1134
33.7930000000	729
33.8230000000	429
33.8530000000	292
33.8830000000	241
33.9130000000	172
33.9430000000	141
33.9730000000	129
34.0030000000	116
34.0330000000	117
34.0630000000	117
34.0930000000	128
34.1230000000	119
34.1530000000	90
34.1830000000	120
34.2130000000	112
34.2430000000	104
34.2730000000	87
34.3030000000	87
34.3330000000	98
34.3630000000	103
34.3930000000	85
34.4230000000	97
34.4530000000	91
34.4830000000	93
34.5130000000	93
34.5430000000	97
34.5730000000	84
34.6030000000	92
34.6330000000	83
34.6630000000	80
34.6930000000	91
34.7230000000	98
34.7530000000	90
34.7830000000	81
34.8130000000	97
34.8430000000	99
34.8730000000	85
34.9030000000	79
34.9330000000	95
34.9630000000	102
34.9930000000	96
35.0230000000	119
35.0530000000	113
35.0830000000	84
35.1130000000	86
35.1430000000	86
35.1730000000	97
35.2030000000	93
35.2330000000	103
35.2630000000	101
35.2930000000	100
35.3230000000	97
35.3530000000	100
35.3830000000	86
35.4130000000	85
35.4430000000	98
35.4730000000	84
35.5030000000	93
35.5330000000	111
35.5630000000	98
35.5930000000	90
35.6230000000	94
35.6530000000	92
35.6830000000	90
35.7130000000	91
35.7430000000	90
35.7730000000	89
35.8030000000	90
35.8330000000	103
35.8630000000	96
35.8930000000	95
35.9230000000	105
35.9530000000	111
35.9830000000	147
36.0130000000	145
36.0430000000	194
36.0730000000	264
36.1030000000	309
36.1330000000	313
36.1630000000	294
36.1930000000	274
36.2230000000	204
36.2530000000	167
36.2830000000	123
36.3130000000	132
36.3430000000	119
36.3730000000	89
36.4030000000	102
36.4330000000	96
36.4630000000	82
36.4930000000	94
36.5230000000	91
36.5530000000	84
36.5830000000	78
36.6130000000	83
36.6430000000	83
36.6730000000	73
36.7030000000	81
36.7330000000	90
36.7630000000	94
36.7930000000	88
36.8230000000	72
36.8530000000	77
36.8830000000	99
36.9130000000	97
36.9430000000	94
36.9730000000	86
37.0030000000	95
37.0330000000	89
37.0630000000	81
37.0930000000	94
37.1230000000	94
37.1530000000	86
37.1830000000	84
37.2130000000	91
37.2430000000	75
37.2730000000	85
37.3030000000	94
37.3330000000	94
37.3630000000	87
37.3930000000	87
37.4230000000	84
37.4530000000	91
37.4830000000	93
37.5130000000	93
37.5430000000	72
37.5730000000	81
37.6030000000	77
37.6330000000	84
37.6630000000	76
37.6930000000	80
37.7230000000	101
37.7530000000	90
37.7830000000	80
37.8130000000	104
37.8430000000	103
37.8730000000	125
37.9030000000	122
37.9330000000	113
37.9630000000	120
37.9930000000	130
38.0230000000	162
38.0530000000	220
38.0830000000	326
38.1130000000	430
38.1430000000	634
38.1730000000	1046
38.2030000000	1623
38.2330000000	2308
38.2630000000	2947
38.2930000000	3318
38.3230000000	3127
38.3530000000	2471
38.3830000000	1865
38.4130000000	1333
38.4430000000	836
38.4730000000	512
38.5030000000	328
38.5330000000	225
38.5630000000	164
38.5930000000	145
38.6230000000	128
38.6530000000	116
38.6830000000	113
38.7130000000	99
38.7430000000	98
38.7730000000	111
38.8030000000	103
38.8330000000	103
38.8630000000	106
38.8930000000	107
38.9230000000	104
38.9530000000	85
38.9830000000	86
39.0130000000	100
39.0430000000	109
39.0730000000	98
39.1030000000	91
39.1330000000	96
39.1630000000	93
39.1930000000	108
39.2230000000	103
39.2530000000	104
39.2830000000	95
39.3130000000	79
39.3430000000	83
39.3730000000	86
39.4030000000	101
39.4330000000	63
39.4630000000	84
39.4930000000	76
39.5230000000	87
39.5530000000	84
39.5830000000	83
39.6130000000	95
39.6430000000	91
39.6730000000	87
39.7030000000	67
39.7330000000	90
39.7630000000	92
39.7930000000	75
39.8230000000	90
39.8530000000	71
39.8830000000	79
39.9130000000	74
39.9430000000	83
39.9730000000	82
40.0030000000	82
40.0330000000	91
40.0630000000	89
40.0930000000	74
40.1230000000	80
40.1530000000	74
40.1830000000	69
40.2130000000	90
40.2430000000	79
40.2730000000	78
40.3030000000	84
40.3330000000	84
40.3630000000	75
40.3930000000	74
40.4230000000	78
40.4530000000	73
40.4830000000	81
40.5130000000	80
40.5430000000	73
40.5730000000	72
40.6030000000	87
40.6330000000	90
40.6630000000	75
40.6930000000	88
40.7230000000	86
40.7530000000	73
40.7830000000	72
40.8130000000	88
40.8430000000	88
40.8730000000	90
40.9030000000	82
40.9330000000	91
40.9630000000	85
40.9930000000	79
41.0230000000	99
41.0530000000	70
41.0830000000	81
41.1130000000	76
41.1430000000	74
41.1730000000	79
41.2030000000	78
41.2330000000	81
41.2630000000	72
41.2930000000	89
41.3230000000	88
41.3530000000	73
41.3830000000	68
41.4130000000	75
41.4430000000	79
41.4730000000	81
41.5030000000	69
41.5330000000	72
41.5630000000	70
41.5930000000	78
41.6230000000	86
41.6530000000	74
41.6830000000	70
41.7130000000	93
41.7430000000	75
41.7730000000	84
41.8030000000	75
41.8330000000	86
41.8630000000	75
41.8930000000	82
41.9230000000	101
41.9530000000	98
41.9830000000	142
42.0130000000	180
42.0430000000	230
42.0730000000	296
42.1030000000	324
42.1330000000	302
42.1630000000	283
42.1930000000	231
42.2230000000	182
42.2530000000	153
42.2830000000	113
42.3130000000	97
42.3430000000	89
42.3730000000	72
42.4030000000	71
42.4330000000	86
42.4630000000	83
42.4930000000	80
42.5230000000	83
42.5530000000	79
42.5830000000	84
42.6130000000	94
42.6430000000	86
42.6730000000	69
42.7030000000	62
42.7330000000	63
42.7630000000	72
42.7930000000	82
42.8230000000	84
42.8530000000	75
42.8830000000	70
42.9130000000	66
42.9430000000	75
42.9730000000	81
43.0030000000	64
43.0330000000	71
43.0630000000	71
43.0930000000	75
43.1230000000	67
43.1530000000	64
43.1830000000	59
43.2130000000	81
43.2430000000	66
43.2730000000	67
43.3030000000	62
43.3330000000	71
43.3630000000	89
43.3930000000	68
43.4230000000	71
43.4530000000	80
43.4830000000	53
43.5130000000	64
43.5430000000	66
43.5730000000	79
43.6030000000	65
43.6330000000	85
43.6630000000	84
43.6930000000	67
43.7230000000	70
43.7530000000	71
43.7830000000	77
43.8130000000	94
43.8430000000	107
43.8730000000	116
43.9030000000	140
43.9330000000	183
43.9630000000	245
43.9930000000	285
44.0230000000	271
44.0530000000	265
44.0830000000	249
44.1130000000	206
44.1430000000	139
44.1730000000	117
44.2030000000	95
44.2330000000	88
44.2630000000	77
44.2930000000	93
44.3230000000	60
44.3530000000	83
44.3830000000	63
44.4130000000	70
44.4430000000	78
44.4730000000	71
44.5030000000	72
44.5330000000	65
44.5630000000	74
44.5930000000	72
44.6230000000	72
44.6530000000	70
44.6830000000	60
44.7130000000	55
44.7430000000	76
44.7730000000	57
44.8030000000	77
44.8330000000	65
44.8630000000	69
44.8930000000	63
44.9230000000	64
44.9530000000	48
44.9830000000	68
45.0130000000	58
45.0430000000	73
45.0730000000	70
45.1030000000	61
45.1330000000	52
45.1630000000	70
45.1930000000	63
45.2230000000	62
45.2530000000	71
45.2830000000	60
45.3130000000	57
45.3430000000	58
45.3730000000	53
45.4030000000	51
45.4330000000	55
45.4630000000	72
45.4930000000	63
45.5230000000	68
45.5530000000	65
45.5830000000	68
45.6130000000	65
45.6430000000	75
45.6730000000	70
45.7030000000	52
45.7330000000	59
45.7630000000	64
45.7930000000	60
45.8230000000	66
45.8530000000	56
45.8830000000	66
45.9130000000	65
45.9430000000	73
45.9730000000	56
46.0030000000	59
46.0330000000	58
46.0630000000	63
46.0930000000	64
46.1230000000	76
46.1530000000	75
46.1830000000	90
46.2130000000	73
46.2430000000	85
46.2730000000	94
46.3030000000	129
46.3330000000	137
46.3630000000	184
46.3930000000	284
46.4230000000	406
46.4530000000	568
46.4830000000	716
46.5130000000	891
46.5430000000	912
46.5730000000	928
46.6030000000	746
46.6330000000	635
46.6630000000	517
46.6930000000	423
46.7230000000	405
46.7530000000	390
46.7830000000	472
46.8130000000	519
46.8430000000	577
46.8730000000	619
46.9030000000	576
46.9330000000	468
46.9630000000	379
46.9930000000	303
47.0230000000	203
47.0530000000	146
47.0830000000	100
47.1130000000	103
47.1430000000	72
47.1730000000	76
47.2030000000	75
47.2330000000	59
47.2630000000	78
47.2930000000	73
47.3230000000	69
47.3530000000	66
47.3830000000	60
47.4130000000	64
47.4430000000	74
47.4730000000	65
47.5030000000	62
47.5330000000	67
47.5630000000	56
47.5930000000	57
47.6230000000	74
47.6530000000	52
47.6830000000	77
47.7130000000	73
47.7430000000	59
47.7730000000	60
47.8030000000	66
47.8330000000	54
47.8630000000	66
47.8930000000	57
47.9230000000	64
47.9530000000	41
47.9830000000	70
48.0130000000	51
48.0430000000	63
48.0730000000	51
48.1030000000	53
48.1330000000	52
48.1630000000	64
48.1930000000	61
48.2230000000	62
48.2530000000	47
48.2830000000	53
48.3130000000	56
48.3430000000	58
48.3730000000	58
48.4030000000	57
48.4330000000	56
48.4630000000	46
48.4930000000	59
48.5230000000	62
48.5530000000	50
48.5830000000	58
48.6130000000	66
48.6430000000	54
48.6730000000	58
48.7030000000	55
48.7330000000	56
48.7630000000	60
48.7930000000	41
48.8230000000	59
48.8530000000	63
48.8830000000	58
48.9130000000	51
48.9430000000	58
48.9730000000	59
49.0030000000	63
49.0330000000	78
49.0630000000	55
49.0930000000	59
49.1230000000	43
49.1530000000	51
49.1830000000	42
49.2130000000	51
49.2430000000	48
49.2730000000	55
49.3030000000	66
49.3330000000	45
49.3630000000	58
49.3930000000	54
49.4230000000	59
49.4530000000	59
49.4830000000	51
49.5130000000	49
49.5430000000	51
49.5730000000	53
49.6030000000	57
49.6330000000	43
49.6630000000	50
49.6930000000	48
49.7230000000	46
49.7530000000	47
49.7830000000	46
49.8130000000	40
49.8430000000	41
49.8730000000	51
49.9030000000	53
49.9330000000	46
49.9630000000	59
49.9930000000	51
50.0230000000	58
50.0530000000	44
50.0830000000	62
50.1130000000	50
50.1430000000	62
50.1730000000	61
50.2030000000	42
50.2330000000	58
50.2630000000	48
50.2930000000	73
50.3230000000	66
50.3530000000	55
50.3830000000	61
50.4130000000	68
50.4430000000	72
50.4730000000	87
50.5030000000	95
50.5330000000	105
50.5630000000	96
50.5930000000	96
50.6230000000	83
50.6530000000	80
50.6830000000	78
50.7130000000	73
50.7430000000	61
50.7730000000	49
50.8030000000	47
50.8330000000	58
50.8630000000	53
50.8930000000	53
50.9230000000	57
50.9530000000	49
50.9830000000	44
51.0130000000	55
51.0430000000	54
51.0730000000	49
51.1030000000	47
51.1330000000	49
51.1630000000	60
51.1930000000	53
51.2230000000	55
51.2530000000	51
51.2830000000	58
51.3130000000	54
51.3430000000	47
51.3730000000	39
51.4030000000	39
51.4330000000	57
51.4630000000	49
51.4930000000	54
51.5230000000	57
51.5530000000	52
51.5830000000	45
51.6130000000	36
51.6430000000	47
51.6730000000	50
51.7030000000	51
51.7330000000	43
51.7630000000	33
51.7930000000	57
51.8230000000	68
51.8530000000	54
51.8830000000	49
51.9130000000	46
51.9430000000	43
51.9730000000	49
52.0030000000	47
52.0330000000	51
52.0630000000	49
52.0930000000	43
52.1230000000	41
52.1530000000	46
52.1830000000	48
52.2130000000	54
52.2430000000	51
52.2730000000	50
52.3030000000	45
52.3330000000	53
52.3630000000	47
52.3930000000	45
52.4230000000	68
52.4530000000	48
52.4830000000	41
52.5130000000	46
52.5430000000	40
52.5730000000	38
52.6030000000	57
52.6330000000	53
52.6630000000	52
52.6930000000	46
52.7230000000	42
52.7530000000	50
52.7830000000	36
52.8130000000	37
52.8430000000	55
52.8730000000	36
52.9030000000	55
52.9330000000	46
52.9630000000	54
52.9930000000	44
53.0230000000	43
53.0530000000	35
53.0830000000	50
53.1130000000	40
53.1430000000	34
53.1730000000	44
53.2030000000	51
53.2330000000	51
53.2630000000	55
53.2930000000	57
53.3230000000	54
53.3530000000	47
53.3830000000	50
53.4130000000	58
53.4430000000	43
53.4730000000	45
53.5030000000	50
53.5330000000	79
53.5630000000	68
53.5930000000	88
53.6230000000	108
53.6530000000	112
53.6830000000	102
53.7130000000	102
53.7430000000	121
53.7730000000	107
53.8030000000	78
53.8330000000	79
53.8630000000	74
53.8930000000	53
53.9230000000	52
53.9530000000	54
53.9830000000	49
54.0130000000	51
54.0430000000	37
54.0730000000	45
54.1030000000	57
54.1330000000	49
54.1630000000	31
54.1930000000	59
54.2230000000	44
54.2530000000	42
54.2830000000	48
54.3130000000	46
54.3430000000	43
54.3730000000	46
54.4030000000	48
54.4330000000	44
54.4630000000	49
54.4930000000	50
54.5230000000	42
54.5530000000	39
54.5830000000	41
54.6130000000	59
54.6430000000	39
54.6730000000	40
54.7030000000	27
54.7330000000	47
54.7630000000	39
54.7930000000	32
54.8230000000	58
54.8530000000	46
54.8830000000	39
54.9130000000	49
54.9430000000	48
54.9730000000	38
55.0030000000	56
55.0330000000	31
55.0630000000	42
55.0930000000	40
55.1230000000	47
55.1530000000	50
55.1830000000	39
55.2130000000	49
55.2430000000	42
55.2730000000	33
55.3030000000	50
55.3330000000	54
55.3630000000	50
55.3930000000	43
55.4230000000	46
55.4530000000	36
55.4830000000	45
55.5130000000	51
55.5430000000	43
55.5730000000	51
55.6030000000	56
55.6330000000	49
55.6630000000	48
55.6930000000	46
55.7230000000	48
55.7530000000	45
55.7830000000	36
55.8130000000	42
55.8430000000	46
55.8730000000	45
55.9030000000	47
55.9330000000	38
55.9630000000	45
55.9930000000	39
56.0230000000	41
56.0530000000	44
56.0830000000	31
56.1130000000	40
56.1430000000	42
56.1730000000	48
56.2030000000	42
56.2330000000	54
56.2630000000	40
56.2930000000	47
56.3230000000	44
56.3530000000	41
56.3830000000	42
56.4130000000	43
56.4430000000	32
56.4730000000	48
56.5030000000	49
56.5330000000	34
56.5630000000	50
56.5930000000	45
56.6230000000	38
56.6530000000	37
56.6830000000	37
56.7130000000	39
56.7430000000	45
56.7730000000	39
56.8030000000	42
56.8330000000	42
56.8630000000	34
56.8930000000	41
56.9230000000	39
56.9530000000	45
56.9830000000	42
57.0130000000	45
57.0430000000	43
57.0730000000	40
57.1030000000	54
57.1330000000	42
57.1630000000	44
57.1930000000	46
57.2230000000	61
57.2530000000	36
57.2830000000	43
57.3130000000	39
57.3430000000	51
57.3730000000	41
57.4030000000	34
57.4330000000	37
57.4630000000	32
57.4930000000	48
57.5230000000	45
57.5530000000	33
57.5830000000	43
57.6130000000	49
57.6430000000	58
57.6730000000	42
57.7030000000	54
57.7330000000	37
57.7630000000	49
57.7930000000	52
57.8230000000	48
57.8530000000	42
57.8830000000	36
57.9130000000	49
57.9430000000	57
57.9730000000	47
58.0030000000	37
58.0330000000	44
58.0630000000	48
58.0930000000	46
58.1230000000	62
58.1530000000	49
58.1830000000	76
58.2130000000	83
58.2430000000	81
58.2730000000	78
58.3030000000	76
58.3330000000	80
58.3630000000	88
58.3930000000	61
58.4230000000	77
58.4530000000	53
58.4830000000	42
58.5130000000	44
58.5430000000	40
58.5730000000	38
58.6030000000	45
58.6330000000	37
58.6630000000	39
58.6930000000	40
58.7230000000	46
58.7530000000	40
58.7830000000	42
58.8130000000	44
58.8430000000	39
58.8730000000	37
58.9030000000	39
58.9330000000	39
58.9630000000	42
58.9930000000	52
59.0230000000	51
59.0530000000	50
59.0830000000	77
59.1130000000	80
59.1430000000	68
59.1730000000	63
59.2030000000	70
59.2330000000	65
59.2630000000	52
59.2930000000	60
59.3230000000	51
59.3530000000	48
59.3830000000	44
59.4130000000	35
59.4430000000	41
59.4730000000	48
59.5030000000	43
59.5330000000	49
59.5630000000	47
59.5930000000	44
59.6230000000	41
59.6530000000	53
59.6830000000	55
59.7130000000	46
59.7430000000	60
59.7730000000	50
59.8030000000	70
59.8330000000	90
59.8630000000	122
59.8930000000	115
59.9230000000	152
59.9530000000	99
59.9830000000	111
60.0130000000	75
60.0430000000	111
60.0730000000	68
60.1030000000	71
60.1330000000	49
60.1630000000	51
60.1930000000	46
60.2230000000	50
60.2530000000	28
60.2830000000	62
60.3130000000	40
60.3430000000	50
60.3730000000	44
60.4030000000	35
60.4330000000	40
60.4630000000	57
60.4930000000	35
60.5230000000	54
60.5530000000	54
60.5830000000	47
60.6130000000	46
60.6430000000	53
60.6730000000	36
60.7030000000	42
60.7330000000	48
60.7630000000	45
60.7930000000	42
60.8230000000	37
60.8530000000	34
60.8830000000	44
60.9130000000	47
60.9430000000	42
60.9730000000	44
61.0030000000	38
61.0330000000	24
61.0630000000	31
61.0930000000	45
61.1230000000	36
61.1530000000	41
61.1830000000	39
61.2130000000	37
61.2430000000	48
61.2730000000	42
61.3030000000	46
61.3330000000	44
61.3630000000	42
61.3930000000	35
61.4230000000	43
61.4530000000	32
61.4830000000	36
61.5130000000	39
61.5430000000	40
61.5730000000	34
61.6030000000	45
61.6330000000	43
61.6630000000	33
61.6930000000	46
61.7230000000	44
61.7530000000	27
61.7830000000	38
61.8130000000	44
61.8430000000	49
61.8730000000	45
61.9030000000	38
61.9330000000	43
61.9630000000	48
61.9930000000	65
62.0230000000	65
62.0530000000	69
62.0830000000	69
62.1130000000	78
62.1430000000	77
62.1730000000	72
62.2030000000	62
62.2330000000	67
62.2630000000	62
62.2930000000	59
62.3230000000	46
62.3530000000	51
62.3830000000	44
62.4130000000	48
62.4430000000	50
62.4730000000	39
62.5030000000	31
62.5330000000	39
62.5630000000	44
62.5930000000	47
62.6230000000	39
62.6530000000	41
62.6830000000	38
62.7130000000	37
62.7430000000	40
62.7730000000	38
62.8030000000	32
62.8330000000	54
62.8630000000	41
62.8930000000	42
62.9230000000	39
62.9530000000	46
62.9830000000	40
63.0130000000	44
63.0430000000	43
63.0730000000	34
63.1030000000	42
63.1330000000	41
63.1630000000	45
63.1930000000	48
63.2230000000	44
63.2530000000	43
63.2830000000	50
63.3130000000	43
63.3430000000	39
63.3730000000	54
63.4030000000	54
63.4330000000	46
63.4630000000	48
63.4930000000	42
63.5230000000	38
63.5530000000	55
63.5830000000	36
63.6130000000	52
63.6430000000	43
63.6730000000	40
63.7030000000	41
63.7330000000	46
63.7630000000	33
63.7930000000	39
63.8230000000	40
63.8530000000	49
63.8830000000	35
63.9130000000	40
63.9430000000	44
63.9730000000	39
64.0030000000	24
64.0330000000	38
64.0630000000	42
64.0930000000	36
64.1230000000	35
64.1530000000	40
64.1830000000	34
64.2130000000	41
64.2430000000	26
64.2730000000	46
64.3030000000	50
64.3330000000	34
64.3630000000	29
64.3930000000	46
64.4230000000	46
64.4530000000	28
64.4830000000	45
64.5130000000	32
64.5430000000	44
64.5730000000	46
64.6030000000	40
64.6330000000	38
64.6630000000	44
64.6930000000	27
64.7230000000	33
64.7530000000	45
64.7830000000	40
64.8130000000	48
64.8430000000	32
64.8730000000	46
64.9030000000	46
64.9330000000	42
64.9630000000	31
64.9930000000	32
65.0230000000	43
65.0530000000	45
65.0830000000	44
65.1130000000	41
65.1430000000	37
65.1730000000	38
65.2030000000	36
65.2330000000	32
65.2630000000	45
65.2930000000	47
65.3230000000	34
65.3530000000	47
65.3830000000	36
65.4130000000	40
65.4430000000	43
65.4730000000	29
65.5030000000	46
65.5330000000	38
65.5630000000	44
65.5930000000	40
65.6230000000	36
65.6530000000	33
65.6830000000	36
65.7130000000	33
65.7430000000	39
65.7730000000	49
65.8030000000	37
65.8330000000	40
65.8630000000	37
65.8930000000	37
65.9230000000	28
65.9530000000	48
65.9830000000	42
66.0130000000	46
66.0430000000	49
66.0730000000	56
66.1030000000	59
66.1330000000	47
66.1630000000	67
66.1930000000	79
66.2230000000	87
66.2530000000	103
66.2830000000	90
66.3130000000	131
66.3430000000	129
66.3730000000	124
66.4030000000	112
66.4330000000	107
66.4630000000	99
66.4930000000	74
66.5230000000	58
66.5530000000	58
66.5830000000	52
66.6130000000	43
66.6430000000	47
66.6730000000	47
66.7030000000	44
66.7330000000	41
66.7630000000	25
66.7930000000	33
66.8230000000	29
66.8530000000	31
66.8830000000	39
66.9130000000	47
66.9430000000	34
66.9730000000	43
67.0030000000	49
67.0330000000	44
67.0630000000	41
67.0930000000	32
67.1230000000	29
67.1530000000	31
67.1830000000	32
67.2130000000	36
67.2430000000	38
67.2730000000	34
67.3030000000	42
67.3330000000	49
67.3630000000	48
67.3930000000	46
67.4230000000	36
67.4530000000	38
67.4830000000	39
67.5130000000	45
67.5430000000	44
67.5730000000	30
67.6030000000	35
67.6330000000	39
67.6630000000	57
67.6930000000	44
67.7230000000	37
67.7530000000	45
67.7830000000	43
67.8130000000	41
67.8430000000	48
67.8730000000	45
67.9030000000	30
67.9330000000	34
67.9630000000	32
67.9930000000	32
68.0230000000	32
68.0530000000	50
68.0830000000	31
68.1130000000	44
68.1430000000	51
68.1730000000	45
68.2030000000	40
68.2330000000	37
68.2630000000	24
68.2930000000	43
68.3230000000	30
68.3530000000	41
68.3830000000	50
68.4130000000	35
68.4430000000	45
68.4730000000	30
68.5030000000	33
68.5330000000	33
68.5630000000	42
68.5930000000	40
68.6230000000	39
68.6530000000	42
68.6830000000	49
68.7130000000	54
68.7430000000	42
68.7730000000	66
68.8030000000	78
68.8330000000	77
68.8630000000	83
68.8930000000	105
68.9230000000	84
68.9530000000	91
68.9830000000	89
69.0130000000	59
69.0430000000	77
69.0730000000	64
69.1030000000	75
69.1330000000	65
69.1630000000	83
69.1930000000	88
69.2230000000	72
69.2530000000	79
69.2830000000	64
69.3130000000	56
69.3430000000	62
69.3730000000	71
69.4030000000	56
69.4330000000	66
69.4630000000	51
69.4930000000	56
69.5230000000	46
69.5530000000	37
69.5830000000	32
69.6130000000	43
69.6430000000	46
69.6730000000	40
69.7030000000	50
69.7330000000	41
69.7630000000	35
69.7930000000	38
69.8230000000	40
69.8530000000	42
69.8830000000	45
69.9130000000	47
69.9430000000	46
69.9730000000	49
70.0030000000	34
70.0330000000	44
70.0630000000	37
70.0930000000	45
70.1230000000	32
70.1530000000	36
70.1830000000	34
70.2130000000	43
70.2430000000	46
70.2730000000	46
70.3030000000	39
70.3330000000	40
70.3630000000	32
70.3930000000	38
70.4230000000	43
70.4530000000	43
70.4830000000	47
70.5130000000	41
70.5430000000	37
70.5730000000	45
70.6030000000	46
70.6330000000	36
70.6630000000	40
70.6930000000	32
70.7230000000	41
70.7530000000	48
70.7830000000	38
70.8130000000	35
70.8430000000	50
70.8730000000	29
70.9030000000	39
70.9330000000	36
70.9630000000	38
70.9930000000	43
71.0230000000	36
71.0530000000	39
71.0830000000	40
71.1130000000	28
71.1430000000	32
71.1730000000	43
71.2030000000	47
71.2330000000	38
71.2630000000	37
71.2930000000	53
71.3230000000	60
71.3530000000	46
71.3830000000	50
71.4130000000	39
71.4430000000	34
71.4730000000	44
71.5030000000	51
71.5330000000	42
71.5630000000	32
71.5930000000	52
71.6230000000	44
71.6530000000	45
71.6830000000	38
71.7130000000	33
71.7430000000	44
71.7730000000	42
71.8030000000	63
71.8330000000	34
71.8630000000	40
71.8930000000	35
71.9230000000	35
71.9530000000	38
71.9830000000	45
72.0130000000	37
72.0430000000	47
72.0730000000	64
72.1030000000	49
72.1330000000	44
72.1630000000	72
72.1930000000	52
72.2230000000	76
72.2530000000	65
72.2830000000	73
72.3130000000	65
72.3430000000	74
72.3730000000	61
72.4030000000	59
72.4330000000	61
72.4630000000	66
72.4930000000	53
72.5230000000	46
72.5530000000	47
72.5830000000	47
72.6130000000	43
72.6430000000	39
72.6730000000	41
72.7030000000	48
72.7330000000	41
72.7630000000	54
72.7930000000	49
72.8230000000	27
72.8530000000	30
72.8830000000	36
72.9130000000	44
72.9430000000	38
72.9730000000	31
73.0030000000	50
73.0330000000	44
73.0630000000	44
73.0930000000	34
73.1230000000	27
73.1530000000	46
73.1830000000	54
73.2130000000	54
73.2430000000	62
73.2730000000	52
73.3030000000	84
73.3330000000	95
73.3630000000	100
73.3930000000	94
73.4230000000	91
73.4530000000	91
73.4830000000	81
73.5130000000	80
73.5430000000	86
73.5730000000	92
73.6030000000	78
73.6330000000	51
73.6630000000	39
73.6930000000	43
73.7230000000	41
73.7530000000	36
73.7830000000	43
73.8130000000	44
73.8430000000	42
73.8730000000	50
73.9030000000	27
73.9330000000	41
73.9630000000	36
73.9930000000	46
74.0230000000	20
74.0530000000	34
74.0830000000	33
74.1130000000	44
74.1430000000	43
74.1730000000	35
74.2030000000	50
74.2330000000	45
74.2630000000	45
74.2930000000	40
74.3230000000	35
74.3530000000	37
74.3830000000	41
74.4130000000	40
74.4430000000	34
74.4730000000	48
74.5030000000	35
74.5330000000	42
74.5630000000	36
74.5930000000	42
74.6230000000	42
74.6530000000	42
74.6830000000	50
74.7130000000	47
74.7430000000	35
74.7730000000	38
74.8030000000	56
74.8330000000	34
74.8630000000	39
74.8930000000	42
74.9230000000	60
74.9530000000	64
74.9830000000	65
75.0130000000	84
75.0430000000	91
75.0730000000	87
75.1030000000	100
75.1330000000	100
75.1630000000	82
75.1930000000	75
75.2230000000	103
75.2530000000	103
75.2830000000	114
75.3130000000	98
75.3430000000	109
75.3730000000	112
75.4030000000	102
75.4330000000	84
75.4630000000	58
75.4930000000	71
75.5230000000	71
75.5530000000	77
75.5830000000	57
75.6130000000	55
75.6430000000	44
75.6730000000	52
75.7030000000	35
75.7330000000	42
75.7630000000	46
75.7930000000	34
75.8230000000	38
75.8530000000	47
75.8830000000	39
75.9130000000	39
75.9430000000	36
75.9730000000	38
76.0030000000	38
76.0330000000	40
76.0630000000	41
76.0930000000	39
76.1230000000	40
76.1530000000	47
76.1830000000	49
76.2130000000	47
76.2430000000	47
76.2730000000	46
76.3030000000	47
76.3330000000	36
76.3630000000	31
76.3930000000	39
76.4230000000	36
76.4530000000	44
76.4830000000	58
76.5130000000	42
76.5430000000	37
76.5730000000	46
76.6030000000	38
76.6330000000	47
76.6630000000	40
76.6930000000	46
76.7230000000	62
76.7530000000	57
76.7830000000	49
76.8130000000	59
76.8430000000	59
76.8730000000	48
76.9030000000	46
76.9330000000	35
76.9630000000	48
76.9930000000	43
77.0230000000	46
77.0530000000	43
77.0830000000	38
77.1130000000	43
77.1430000000	38
77.1730000000	37
77.2030000000	37
77.2330000000	40
77.2630000000	40
77.2930000000	27
77.3230000000	40
77.3530000000	34
77.3830000000	44
77.4130000000	43
77.4430000000	53
77.4730000000	46
77.5030000000	48
77.5330000000	51
77.5630000000	59
77.5930000000	47
77.6230000000	43
77.6530000000	40
77.6830000000	51
77.7130000000	46
77.7430000000	47
77.7730000000	52
77.8030000000	44
77.8330000000	41
77.8630000000	42
77.8930000000	32
77.9230000000	37
77.9530000000	37
77.9830000000	36
78.0130000000	34
78.0430000000	43
78.0730000000	30
78.1030000000	39
78.1330000000	42
78.1630000000	37
78.1930000000	38
78.2230000000	51
78.2530000000	51
78.2830000000	41
78.3130000000	32
78.3430000000	31
78.3730000000	35
78.4030000000	35
78.4330000000	28
78.4630000000	40
78.4930000000	41
78.5230000000	54
78.5530000000	33
78.5830000000	32
78.6130000000	42
78.6430000000	36
78.6730000000	36
78.7030000000	32
78.7330000000	36
78.7630000000	39
78.7930000000	29
78.8230000000	36
78.8530000000	54
78.8830000000	40
78.9130000000	33
78.9430000000	38
78.9730000000	37
79.0030000000	39
79.0330000000	36
79.0630000000	37
79.0930000000	37
79.1230000000	36
79.1530000000	43
79.1830000000	33
79.2130000000	30
79.2430000000	39
79.2730000000	29
79.3030000000	41
79.3330000000	34
79.3630000000	39
79.3930000000	38
79.4230000000	24
79.4530000000	26
79.4830000000	52
79.5130000000	33
79.5430000000	29
79.5730000000	38
79.6030000000	35
79.6330000000	46
79.6630000000	38
79.6930000000	36
79.7230000000	40
79.7530000000	60
79.7830000000	43
79.8130000000	41
79.8430000000	36
79.8730000000	39
79.9030000000	32
79.9330000000	32
79.9630000000	40
79.9930000000	35
80.0230000000	46
80.0530000000	34
80.0830000000	35
80.1130000000	26
80.1430000000	41
80.1730000000	30
80.2030000000	39
80.2330000000	43
80.2630000000	31
80.2930000000	39
80.3230000000	44
80.3530000000	40
80.3830000000	37
80.4130000000	45
80.4430000000	43
80.4730000000	51
80.5030000000	52
80.5330000000	43
80.5630000000	51
80.5930000000	39
80.6230000000	43
80.6530000000	56
80.6830000000	45
80.7130000000	45
80.7430000000	58
80.7730000000	49
80.8030000000	42
80.8330000000	41
80.8630000000	50
80.8930000000	54
80.9230000000	46
80.9530000000	46
80.9830000000	20
81.0130000000	34
81.0430000000	36
81.0730000000	37
81.1030000000	38
81.1330000000	33
81.1630000000	42
81.1930000000	38
81.2230000000	45
81.2530000000	36
81.2830000000	39
81.3130000000	51
81.3430000000	47
81.3730000000	39
81.4030000000	37
81.4330000000	37
81.4630000000	48
81.4930000000	56
81.5230000000	71
81.5530000000	85
81.5830000000	61
81.6130000000	51
81.6430000000	57
81.6730000000	68
81.7030000000	51
81.7330000000	62
81.7630000000	62
81.7930000000	61
81.8230000000	63
81.8530000000	58
81.8830000000	56
81.9130000000	47
81.9430000000	73
81.9730000000	50
82.0030000000	43
82.0330000000	61
82.0630000000	59
82.0930000000	49
82.1230000000	50
82.1530000000	63
82.1830000000	49
82.2130000000	43
82.2430000000	43
82.2730000000	42
82.3030000000	48
82.3330000000	43
82.3630000000	34
82.3930000000	37
82.4230000000	31
82.4530000000	29
82.4830000000	33
82.5130000000	30
82.5430000000	40
82.5730000000	36
82.6030000000	33
82.6330000000	30
82.6630000000	32
82.6930000000	42
82.7230000000	39
82.7530000000	44
82.7830000000	41
82.8130000000	31
82.8430000000	34
82.8730000000	31
82.9030000000	24
82.9330000000	24
82.9630000000	35
82.9930000000	37
83.0230000000	42
83.0530000000	42
83.0830000000	39
83.1130000000	39
83.1430000000	32
83.1730000000	34
83.2030000000	37
83.2330000000	31
83.2630000000	38
83.2930000000	33
83.3230000000	39
83.3530000000	35
83.3830000000	27
83.4130000000	40
83.4430000000	51
83.4730000000	37
83.5030000000	49
83.5330000000	39
83.5630000000	47
83.5930000000	49
83.6230000000	61
83.6530000000	62
83.6830000000	59
83.7130000000	60
83.7430000000	44
83.7730000000	54
83.8030000000	50
83.8330000000	48
83.8630000000	57
83.8930000000	44
83.9230000000	40
83.9530000000	53
83.9830000000	50
84.0130000000	33
84.0430000000	44
84.0730000000	36
84.1030000000	49
84.1330000000	38
84.1630000000	26
84.1930000000	41
84.2230000000	36
84.2530000000	32
84.2830000000	29
84.3130000000	40
84.3430000000	34
84.3730000000	49
84.4030000000	35
84.4330000000	37
84.4630000000	34
84.4930000000	32
84.5230000000	33
84.5530000000	41
84.5830000000	39
84.6130000000	41
84.6430000000	39
84.6730000000	40
84.7030000000	40
84.7330000000	42
84.7630000000	40
84.7930000000	74
84.8230000000	70
84.8530000000	79
84.8830000000	67
84.9130000000	86
84.9430000000	63
84.9730000000	71
85.0030000000	61
85.0330000000	56
85.0630000000	68
85.0930000000	53
85.1230000000	57
85.1530000000	58
85.1830000000	40
85.2130000000	39
85.2430000000	38
85.2730000000	36
85.3030000000	29
85.3330000000	46
85.3630000000	35
85.3930000000	36
85.4230000000	26
85.4530000000	35
85.4830000000	32
85.5130000000	40
85.5430000000	45
85.5730000000	36
85.6030000000	48
85.6330000000	37
85.6630000000	43
85.6930000000	31
85.7230000000	33
85.7530000000	42
85.7830000000	39
85.8130000000	40
85.8430000000	38
85.8730000000	36
85.9030000000	42
85.9330000000	49
85.9630000000	43
85.9930000000	35
86.0230000000	46
86.0530000000	45
86.0830000000	41
86.1130000000	42
86.1430000000	42
86.1730000000	39
86.2030000000	44
86.2330000000	35
86.2630000000	33
86.2930000000	40
86.3230000000	46
86.3530000000	34
86.3830000000	30
86.4130000000	39
86.4430000000	39
86.4730000000	35
86.5030000000	33
86.5330000000	38
86.5630000000	34
86.5930000000	19
86.6230000000	37
86.6530000000	38
86.6830000000	32
86.7130000000	34
86.7430000000	34
86.7730000000	41
86.8030000000	37
86.8330000000	35
86.8630000000	39
86.8930000000	44
86.9230000000	39
86.9530000000	36
86.9830000000	34
87.0130000000	31
87.0430000000	38
87.0730000000	33
87.1030000000	38
87.1330000000	33
87.1630000000	31
87.1930000000	41
87.2230000000	37
87.2530000000	32
87.2830000000	28
87.3130000000	34
87.3430000000	33
87.3730000000	43
87.4030000000	37
87.4330000000	34
87.4630000000	37
87.4930000000	35
87.5230000000	36
87.5530000000	31
87.5830000000	28
87.6130000000	26
87.6430000000	41
87.6730000000	41
87.7030000000	34
87.7330000000	39
87.7630000000	29
87.7930000000	29
87.8230000000	41
87.8530000000	34
87.8830000000	29
87.9130000000	35
87.9430000000	37
87.9730000000	23
88.0030000000	26
88.0330000000	35
88.0630000000	39
88.0930000000	52
88.1230000000	29
88.1530000000	32
88.1830000000	48
88.2130000000	47
88.2430000000	36
88.2730000000	39
88.3030000000	33
88.3330000000	31
88.3630000000	38
88.3930000000	42
88.4230000000	46
88.4530000000	29
88.4830000000	38
88.5130000000	43
88.5430000000	39
88.5730000000	30
88.6030000000	39
88.6330000000	45
88.6630000000	23
88.6930000000	39
88.7230000000	28
88.7530000000	33
88.7830000000	41
88.8130000000	32
88.8430000000	36
88.8730000000	34
88.9030000000	39
88.9330000000	30
88.9630000000	39
88.9930000000	41
89.0230000000	53
89.0530000000	40
89.0830000000	43
89.1130000000	45
89.1430000000	41
89.1730000000	54
89.2030000000	49
89.2330000000	50
89.2630000000	55
89.2930000000	40
89.3230000000	36
89.3530000000	44
89.3830000000	50
89.4130000000	39
89.4430000000	33
89.4730000000	47
89.5030000000	35
89.5330000000	39
89.5630000000	40
89.5930000000	40
89.6230000000	35
89.6530000000	42
89.6830000000	42
89.7130000000	35
89.7430000000	35
89.7730000000	36
89.8030000000	44
89.8330000000	51
89.8630000000	52
89.8930000000	55
89.9230000000	47
89.9530000000	42
89.9830000000	45
90.0130000000	39
90.0430000000	46
90.0730000000	40
90.1030000000	38
90.1330000000	33
90.1630000000	37
90.1930000000	44
90.2230000000	38
90.2530000000	37
90.2830000000	29
90.3130000000	44
90.3430000000	37
90.3730000000	35
90.4030000000	35
90.4330000000	33
90.4630000000	33
90.4930000000	50
90.5230000000	28
90.5530000000	27
90.5830000000	29
90.6130000000	49
90.6430000000	25
90.6730000000	32
90.7030000000	47
90.7330000000	34
90.7630000000	44
90.7930000000	43
90.8230000000	41
90.8530000000	36
90.8830000000	24
90.9130000000	35
90.9430000000	44
90.9730000000	32
91.0030000000	42
91.0330000000	44
91.0630000000	40
91.0930000000	34
91.1230000000	41
91.1530000000	31
91.1830000000	37
91.2130000000	44
91.2430000000	36
91.2730000000	45
91.3030000000	32
91.3330000000	42
91.3630000000	37
91.3930000000	35
91.4230000000	34
91.4530000000	29
91.4830000000	30
91.5130000000	34
91.5430000000	37
91.5730000000	40
91.6030000000	32
91.6330000000	34
91.6630000000	42
91.6930000000	40
91.7230000000	36
91.7530000000	33
91.7830000000	38
91.8130000000	35
91.8430000000	37
91.8730000000	45
91.9030000000	38
91.9330000000	41
91.9630000000	46
91.9930000000	39
92.0230000000	44
92.0530000000	32
92.0830000000	42
92.1130000000	36
92.1430000000	40
92.1730000000	42
92.2030000000	42
92.2330000000	42
92.2630000000	31
92.2930000000	28
92.3230000000	40
92.3530000000	37
92.3830000000	34
92.4130000000	37
92.4430000000	31
92.4730000000	41
92.5030000000	34
92.5330000000	39
92.5630000000	43
92.5930000000	43
92.6230000000	52
92.6530000000	33
92.6830000000	40
92.7130000000	34
92.7430000000	26
92.7730000000	34
92.8030000000	32
92.8330000000	44
92.8630000000	30
92.8930000000	39
92.9230000000	43
92.9530000000	37
92.9830000000	32
93.0130000000	33
93.0430000000	42
93.0730000000	39
93.1030000000	40
93.1330000000	43
93.1630000000	41
93.1930000000	39
93.2230000000	38
93.2530000000	45
93.2830000000	47
93.3130000000	38
93.3430000000	42
93.3730000000	34
93.4030000000	43
93.4330000000	63
93.4630000000	38
93.4930000000	39
93.5230000000	37
93.5530000000	42
93.5830000000	36
93.6130000000	38
93.6430000000	39
93.6730000000	43
93.7030000000	49
93.7330000000	37
93.7630000000	40
93.7930000000	33
93.8230000000	44
93.8530000000	36
93.8830000000	34
93.9130000000	35
93.9430000000	41
93.9730000000	33
94.0030000000	30
94.0330000000	30
94.0630000000	32
94.0930000000	35
94.1230000000	38
94.1530000000	42
94.1830000000	47
94.2130000000	35
94.2430000000	43
94.2730000000	36
94.3030000000	49
94.3330000000	56
94.3630000000	44
94.3930000000	48
94.4230000000	61
94.4530000000	59
94.4830000000	52
94.5130000000	54
94.5430000000	56
94.5730000000	60
94.6030000000	60
94.6330000000	58
94.6630000000	50
94.6930000000	47
94.7230000000	54
94.7530000000	53
94.7830000000	55
94.8130000000	57
94.8430000000	61
94.8730000000	50
94.9030000000	46
94.9330000000	48
94.9630000000	48
94.9930000000	36
95.0230000000	39
95.0530000000	36
95.0830000000	48
95.1130000000	40
95.1430000000	30
95.1730000000	34
95.2030000000	42
95.2330000000	31
95.2630000000	40
95.2930000000	33
95.3230000000	34
95.3530000000	33
95.3830000000	28
95.4130000000	28
95.4430000000	38
95.4730000000	48
95.5030000000	43
95.5330000000	33
95.5630000000	45
95.5930000000	37
95.6230000000	42
95.6530000000	44
95.6830000000	46
95.7130000000	43
95.7430000000	35
95.7730000000	44
95.8030000000	38
95.8330000000	38
95.8630000000	36
95.8930000000	35
95.9230000000	44
95.9530000000	47
95.9830000000	40
96.0130000000	35
96.0430000000	37
96.0730000000	38
96.1030000000	41
96.1330000000	48
96.1630000000	42
96.1930000000	38
96.2230000000	38
96.2530000000	48
96.2830000000	36
96.3130000000	33
96.3430000000	46
96.3730000000	41
96.4030000000	39
96.4330000000	27
96.4630000000	42
96.4930000000	34
96.5230000000	39
96.5530000000	38
96.5830000000	45
96.6130000000	38
96.6430000000	30
96.6730000000	32
96.7030000000	37
96.7330000000	27
96.7630000000	28
96.7930000000	42
96.8230000000	35
96.8530000000	38
96.8830000000	40
96.9130000000	43
96.9430000000	33
96.9730000000	38
97.0030000000	34
97.0330000000	40
97.0630000000	29
97.0930000000	38
97.1230000000	34
97.1530000000	52
97.1830000000	39
97.2130000000	22
97.2430000000	33
97.2730000000	42
97.3030000000	36
97.3330000000	52
97.3630000000	51
97.3930000000	39
97.4230000000	40
97.4530000000	37
97.4830000000	36
97.5130000000	41
97.5430000000	30
97.5730000000	30
97.6030000000	37
97.6330000000	36
97.6630000000	40
97.6930000000	35
97.7230000000	43
97.7530000000	40
97.7830000000	41
97.8130000000	33
97.8430000000	46
97.8730000000	23
97.9030000000	28
97.9330000000	31
97.9630000000	35
97.9930000000	44
98.0230000000	32
98.0530000000	45
98.0830000000	34
98.1130000000	54
98.1430000000	25
98.1730000000	36
98.2030000000	31
98.2330000000	36
98.2630000000	33
98.2930000000	33
98.3230000000	32
98.3530000000	30
98.3830000000	36
98.4130000000	29
98.4430000000	28
98.4730000000	38
98.5030000000	34
98.5330000000	33
98.5630000000	30
98.5930000000	44
98.6230000000	51
98.6530000000	39
98.6830000000	41
98.7130000000	48
98.7430000000	43
98.7730000000	42
98.8030000000	50
98.8330000000	50
98.8630000000	51
98.8930000000	65
98.9230000000	53
98.9530000000	38
98.9830000000	48
99.0130000000	49
99.0430000000	43
99.0730000000	43
99.1030000000	45
99.1330000000	40
99.1630000000	38
99.1930000000	47
99.2230000000	28
99.2530000000	39
99.2830000000	40
99.3130000000	36
99.3430000000	39
99.3730000000	36
99.4030000000	33
99.4330000000	36
99.4630000000	33
99.4930000000	37
99.5230000000	27
99.5530000000	45
99.5830000000	41
99.6130000000	42
99.6430000000	33
99.6730000000	26
99.7030000000	48
99.7330000000	34
99.7630000000	35
99.7930000000	35
99.8230000000	35
99.8530000000	44
99.8830000000	39
99.9130000000	33
99.9430000000	34
99.9730000000	35
100.0030000000	45
100.0330000000	40
100.0630000000	37
100.0930000000	37
100.1230000000	37
100.1530000000	34
100.1830000000	32
100.2130000000	34
100.2430000000	32
100.2730000000	37
100.3030000000	41
100.3330000000	33
100.3630000000	36
100.3930000000	40
100.4230000000	42
100.4530000000	41
100.4830000000	45
100.5130000000	42
100.5430000000	40
100.5730000000	34
100.6030000000	29
100.6330000000	43
100.6630000000	35
100.6930000000	30
100.7230000000	42
100.7530000000	30
100.7830000000	38
100.8130000000	29
100.8430000000	40
100.8730000000	40
100.9030000000	45
100.9330000000	33
100.9630000000	30
100.9930000000	37
101.0230000000	30
101.0530000000	36
101.0830000000	38
101.1130000000	32
101.1430000000	38
101.1730000000	34
101.2030000000	35
101.2330000000	32
101.2630000000	43
101.2930000000	44
101.3230000000	35
101.3530000000	34
101.3830000000	42
101.4130000000	30
101.4430000000	36
101.4730000000	34
101.5030000000	40
101.5330000000	38
101.5630000000	26
101.5930000000	30
101.6230000000	36
101.6530000000	29
101.6830000000	25
101.7130000000	40
101.7430000000	39
101.7730000000	31
101.8030000000	36
101.8330000000	36
101.8630000000	40
101.8930000000	36
101.9230000000	42
101.9530000000	40
101.9830000000	30
102.0130000000	36
102.0430000000	38
102.0730000000	33
102.1030000000	25
102.1330000000	40
102.1630000000	32
102.1930000000	42
102.2230000000	27
102.2530000000	29
102.2830000000	41
102.3130000000	31
102.3430000000	37
102.3730000000	31
102.4030000000	24
102.4330000000	48
102.4630000000	27
102.4930000000	28
102.5230000000	28
102.5530000000	38
102.5830000000	35
102.6130000000	41
102.6430000000	29
102.6730000000	39
102.7030000000	38
102.7330000000	28
102.7630000000	39
102.7930000000	35
102.8230000000	43
102.8530000000	35
102.8830000000	37
102.9130000000	28
102.9430000000	32
102.9730000000	44
103.0030000000	43
103.0330000000	34
103.0630000000	23
103.0930000000	41
103.1230000000	38
103.1530000000	24
103.1830000000	30
103.2130000000	36
103.2430000000	36
103.2730000000	36
103.3030000000	34
103.3330000000	32
103.3630000000	32
103.3930000000	35
103.4230000000	34
103.4530000000	32
103.4830000000	42
103.5130000000	46
103.5430000000	30
103.5730000000	34
103.6030000000	41
103.6330000000	34
103.6630000000	34
103.6930000000	31
103.7230000000	26
103.7530000000	41
103.7830000000	42
103.8130000000	39
103.8430000000	35
103.8730000000	34
103.9030000000	49
103.9330000000	39
103.9630000000	55
103.9930000000	48
104.0230000000	33
104.0530000000	42
104.0830000000	47
104.1130000000	49
104.1430000000	50
104.1730000000	54
104.2030000000	35
104.2330000000	41
104.2630000000	37
104.2930000000	40
104.3230000000	39
104.3530000000	43
104.3830000000	35
104.4130000000	40
104.4430000000	48
104.4730000000	37
104.5030000000	49
104.5330000000	47
104.5630000000	44
104.5930000000	48
104.6230000000	37
104.6530000000	35
104.6830000000	40
104.7130000000	32
104.7430000000	33
104.7730000000	49
104.8030000000	48
104.8330000000	40
104.8630000000	32
104.8930000000	43
104.9230000000	48
104.9530000000	38
104.9830000000	39
105.0130000000	56
105.0430000000	50
105.0730000000	42
105.1030000000	40
105.1330000000	33
105.1630000000	47
105.1930000000	54
105.2230000000	31
105.2530000000	40
105.2830000000	30
105.3130000000	44
105.3430000000	28
105.3730000000	44
105.4030000000	46
105.4330000000	33
105.4630000000	28
105.4930000000	33
105.5230000000	48
105.5530000000	34
105.5830000000	37
105.6130000000	33
105.6430000000	32
105.6730000000	34
105.7030000000	41
105.7330000000	48
105.7630000000	38
105.7930000000	42
105.8230000000	30
105.8530000000	36
105.8830000000	26
105.9130000000	28
105.9430000000	31
105.9730000000	41
106.0030000000	49
106.0330000000	32
106.0630000000	35
106.0930000000	41
106.1230000000	26
106.1530000000	38
106.1830000000	33
106.2130000000	41
106.2430000000	36
106.2730000000	44
106.3030000000	43
106.3330000000	38
106.3630000000	43
106.3930000000	41
106.4230000000	29
106.4530000000	37
106.4830000000	32
106.5130000000	29
106.5430000000	39
106.5730000000	36
106.6030000000	32
106.6330000000	36
106.6630000000	32
106.6930000000	33
106.7230000000	39
106.7530000000	35
106.7830000000	37
106.8130000000	40
106.8430000000	40
106.8730000000	30
106.9030000000	36
106.9330000000	24
106.9630000000	37
106.9930000000	29
107.0230000000	34
107.0530000000	28
107.0830000000	39
107.1130000000	32
107.1430000000	33
107.1730000000	27
107.2030000000	36
107.2330000000	33
107.2630000000	40
107.2930000000	38
107.3230000000	40
107.3530000000	36
107.3830000000	36
107.4130000000	36
107.4430000000	38
107.4730000000	46
107.5030000000	29
107.5330000000	30
107.5630000000	39
107.5930000000	36
107.6230000000	37
107.6530000000	41
107.6830000000	41
107.7130000000	40
107.7430000000	38
107.7730000000	35
107.8030000000	34
107.8330000000	32
107.8630000000	31
107.8930000000	34
107.9230000000	37
107.9530000000	36
107.9830000000	35
108.0130000000	33
108.0430000000	43
108.0730000000	38
108.1030000000	44
108.1330000000	37
108.1630000000	37
108.1930000000	33
108.2230000000	49
108.2530000000	42
108.2830000000	36
108.3130000000	50
108.3430000000	36
108.3730000000	35
108.4030000000	37
108.4330000000	43
108.4630000000	39
108.4930000000	42
108.5230000000	35
108.5530000000	31
108.5830000000	34
108.6130000000	40
108.6430000000	50
108.6730000000	44
108.7030000000	39
108.7330000000	49
108.7630000000	51
108.7930000000	51
108.8230000000	60
108.8530000000	65
108.8830000000	59
108.9130000000	68
108.9430000000	72
108.9730000000	89
109.0030000000	88
109.0330000000	81
109.0630000000	84
109.0930000000	83
109.1230000000	75
109.1530000000	66
109.1830000000	54
109.2130000000	47
109.2430000000	49
109.2730000000	57
109.3030000000	51
109.3330000000	46
109.3630000000	44
109.3930000000	69
109.4230000000	42
109.4530000000	51
109.4830000000	32
109.5130000000	29
109.5430000000	33
109.5730000000	32
109.6030000000	45
109.6330000000	32
109.6630000000	35
109.6930000000	26
109.7230000000	35
109.7530000000	33
109.7830000000	31
109.8130000000	38
109.8430000000	30
109.8730000000	43
109.9030000000	39
109.9330000000	40
109.9630000000	30
109.9930000000	35
110.0230000000	42
110.0530000000	27
110.0830000000	47
110.1130000000	31
110.1430000000	37
110.1730000000	39
110.2030000000	30
110.2330000000	49
110.2630000000	33
110.2930000000	44
110.3230000000	38
110.3530000000	34
110.3830000000	31
110.4130000000	43
110.4430000000	32
110.4730000000	37
110.5030000000	36
110.5330000000	42
110.5630000000	37
110.5930000000	36
110.6230000000	32
110.6530000000	28
110.6830000000	32
110.7130000000	37
110.7430000000	37
110.7730000000	44
110.8030000000	34
110.8330000000	31
110.8630000000	36
110.8930000000	37
110.9230000000	36
110.9530000000	37
110.9830000000	29
111.0130000000	31
111.0430000000	41
111.0730000000	45
111.1030000000	44
111.1330000000	41
111.1630000000	38
111.1930000000	44
111.2230000000	57
111.2530000000	50
111.2830000000	27
111.3130000000	35
111.3430000000	46
111.3730000000	36
111.4030000000	54
111.4330000000	47
111.4630000000	46
111.4930000000	45
111.5230000000	41
111.5530000000	40
111.5830000000	39
111.6130000000	33
111.6430000000	41
111.6730000000	37
111.7030000000	35
111.7330000000	35
111.7630000000	43
111.7930000000	41
111.8230000000	36
111.8530000000	39
111.8830000000	42
111.9130000000	38
111.9430000000	43
111.9730000000	46
112.0030000000	36
112.0330000000	39
112.0630000000	30
112.0930000000	30
112.1230000000	26
112.1530000000	42
112.1830000000	35
112.2130000000	33
112.2430000000	40
112.2730000000	33
112.3030000000	36
112.3330000000	43
112.3630000000	44
112.3930000000	19
112.4230000000	35
112.4530000000	48
112.4830000000	33
112.5130000000	35
112.5430000000	40
112.5730000000	35
112.6030000000	43
112.6330000000	37
112.6630000000	37
112.6930000000	36
112.7230000000	32
112.7530000000	41
112.7830000000	46
112.8130000000	33
112.8430000000	35
112.8730000000	32
112.9030000000	42
112.9330000000	37
112.9630000000	32
112.9930000000	29
113.0230000000	40
113.0530000000	36
113.0830000000	30
113.1130000000	39
113.1430000000	27
113.1730000000	37
113.2030000000	34
113.2330000000	34
113.2630000000	37
113.2930000000	42
113.3230000000	38
113.3530000000	44
113.3830000000	45
113.4130000000	46
113.4430000000	47
113.4730000000	43
113.5030000000	51
113.5330000000	40
113.5630000000	38
113.5930000000	35
113.6230000000	38
113.6530000000	40
113.6830000000	44
113.7130000000	32
113.7430000000	32
113.7730000000	38
113.8030000000	39
113.8330000000	42
113.8630000000	41
113.8930000000	38
113.9230000000	39
113.9530000000	40
113.9830000000	36
114.0130000000	35
114.0430000000	36
114.0730000000	36
114.1030000000	32
114.1330000000	41
114.1630000000	44
114.1930000000	48
114.2230000000	37
114.2530000000	38
114.2830000000	40
114.3130000000	29
114.3430000000	38
114.3730000000	35
114.4030000000	47
114.4330000000	43
114.4630000000	1
114.4930000000	1
114.5230000000	1
114.5530000000	1
114.5830000000	1
