0.3130000000	1
0.3430000000	1
0.3730000000	1
0.4030000000	2
0.4330000000	1
0.4630000000	1
0.4930000000	1
0.5230000000	1
0.5530000000	2
0.5830000000	1
0.6130000000	1
0.6430000000	2
0.6730000000	2
0.7030000000	1
0.7330000000	1
0.7630000000	2
0.7930000000	1
0.8230000000	1
0.8530000000	1
0.8830000000	1
0.9130000000	1
0.9430000000	1
0.9730000000	1
1.0030000000	1
1.0330000000	1
1.0630000000	1
1.0930000000	1
1.1230000000	1
1.1530000000	1
1.1830000000	1
1.2130000000	1
1.2430000000	1
1.2730000000	1
1.3030000000	1
1.3330000000	1
1.3630000000	3
1.3930000000	2
1.4230000000	1
1.4530000000	3
1.4830000000	2
1.5130000000	1
1.5430000000	2
1.5730000000	1
1.6030000000	1
1.6330000000	2
1.6630000000	1
1.6930000000	1
1.7230000000	2
1.7530000000	1
1.7830000000	1
1.8130000000	1
1.8430000000	2
1.8730000000	1
1.9030000000	2
1.9330000000	1
1.9630000000	1
1.9930000000	1
2.0230000000	1
2.0530000000	1
2.0830000000	1
2.1130000000	1
2.1430000000	1
2.1730000000	2
2.2030000000	2
2.2330000000	2
2.2630000000	1
2.2930000000	2
2.3230000000	3
2.3530000000	2
2.3830000000	1
2.4130000000	1
2.4430000000	3
2.4730000000	2
2.5030000000	2
2.5330000000	3
2.5630000000	3
2.5930000000	1
2.6230000000	2
2.6530000000	3
2.6830000000	2
2.7130000000	2
2.7430000000	1
2.7730000000	2
2.8030000000	2
2.8330000000	3
2.8630000000	2
2.8930000000	1
2.9230000000	1
2.9530000000	1
2.9830000000	2
3.0130000000	3
3.0430000000	4
3.0730000000	0
3.1030000000	1
3.1330000000	1
3.1630000000	1
3.1930000000	2
3.2230000000	2
3.2530000000	1
3.2830000000	1
3.3130000000	1
3.3430000000	2
3.3730000000	1
3.4030000000	1
3.4330000000	2
3.4630000000	2
3.4930000000	2
3.5230000000	3
3.5530000000	1
3.5830000000	4
3.6130000000	1
3.6430000000	1
3.6730000000	2
3.7030000000	2
3.7330000000	1
3.7630000000	2
3.7930000000	1
3.8230000000	2
3.8530000000	1
3.8830000000	3
3.9130000000	2
3.9430000000	3
3.9730000000	3
4.0030000000	3
4.0330000000	1
4.0630000000	3
4.0930000000	4
4.1230000000	2
4.1530000000	3
4.1830000000	6
4.2130000000	4
4.2430000000	7
4.2730000000	7
4.3030000000	7
4.3330000000	3
4.3630000000	7
4.3930000000	6
4.4230000000	8
4.4530000000	10
4.4830000000	13
4.5130000000	23
4.5430000000	45
4.5730000000	60
4.6030000000	77
4.6330000000	106
4.6630000000	122
4.6930000000	145
4.7230000000	159
4.7530000000	148
4.7830000000	133
4.8130000000	164
4.8430000000	151
4.8730000000	146
4.9030000000	138
4.9330000000	131
4.9630000000	157
4.9930000000	148
5.0230000000	140
5.0530000000	160
5.0830000000	171
5.1130000000	139
5.1430000000	150
5.1730000000	148
5.2030000000	144
5.2330000000	167
5.2630000000	159
5.2930000000	157
5.3230000000	148
5.3530000000	164
5.3830000000	153
5.4130000000	166
5.4430000000	165
5.4730000000	132
5.5030000000	144
5.5330000000	152
5.5630000000	145
5.5930000000	155
5.6230000000	142
5.6530000000	168
5.6830000000	143
5.7130000000	175
5.7430000000	146
5.7730000000	166
5.8030000000	187
5.8330000000	159
5.8630000000	156
5.8930000000	157
5.9230000000	180
5.9530000000	177
5.9830000000	170
6.0130000000	161
6.0430000000	153
6.0730000000	157
6.1030000000	161
6.1330000000	185
6.1630000000	180
6.1930000000	162
6.2230000000	174
6.2530000000	165
6.2830000000	162
6.3130000000	151
6.3430000000	168
6.3730000000	150
6.4030000000	168
6.4330000000	182
6.4630000000	138
6.4930000000	157
6.5230000000	169
6.5530000000	152
6.5830000000	166
6.6130000000	165
6.6430000000	165
6.6730000000	168
6.7030000000	179
6.7330000000	158
6.7630000000	168
6.7930000000	147
6.8230000000	146
6.8530000000	157
6.8830000000	162
6.9130000000	160
6.9430000000	183
6.9730000000	151
7.0030000000	163
7.0330000000	168
7.0630000000	171
7.0930000000	175
7.1230000000	193
7.1530000000	167
7.1830000000	171
7.2130000000	144
7.2430000000	169
7.2730000000	163
7.3030000000	159
7.3330000000	177
7.3630000000	167
7.3930000000	146
7.4230000000	155
7.4530000000	179
7.4830000000	145
7.5130000000	141
7.5430000000	168
7.5730000000	162
7.6030000000	144
7.6330000000	152
7.6630000000	169
7.6930000000	165
7.7230000000	160
7.7530000000	151
7.7830000000	154
7.8130000000	159
7.8430000000	144
7.8730000000	158
7.9030000000	170
7.9330000000	159
7.9630000000	160
7.9930000000	152
8.0230000000	145
8.0530000000	172
8.0830000000	159
8.1130000000	145
8.1430000000	159
8.1730000000	154
8.2030000000	150
8.2330000000	166
8.2630000000	163
8.2930000000	151
8.3230000000	155
8.3530000000	145
8.3830000000	168
8.4130000000	142
8.4430000000	153
8.4730000000	161
8.5030000000	169
8.5330000000	183
8.5630000000	148
8.5930000000	148
8.6230000000	143
8.6530000000	142
8.6830000000	158
8.7130000000	170
8.7430000000	151
8.7730000000	168
8.8030000000	143
8.8330000000	164
8.8630000000	178
8.8930000000	174
8.9230000000	151
8.9530000000	144
8.9830000000	162
9.0130000000	157
9.0430000000	141
9.0730000000	141
9.1030000000	166
9.1330000000	178
9.1630000000	170
9.1930000000	154
9.2230000000	154
9.2530000000	145
9.2830000000	157
9.3130000000	158
9.3430000000	174
9.3730000000	171
9.4030000000	141
9.4330000000	168
9.4630000000	164
9.4930000000	159
9.5230000000	156
9.5530000000	190
9.5830000000	174
9.6130000000	157
9.6430000000	169
9.6730000000	184
9.7030000000	151
9.7330000000	169
9.7630000000	163
9.7930000000	158
9.8230000000	170
9.8530000000	150
9.8830000000	192
9.9130000000	176
9.9430000000	172
9.9730000000	157
10.0030000000	157
10.0330000000	148
10.0630000000	162
10.0930000000	167
10.1230000000	173
10.1530000000	152
10.1830000000	180
10.2130000000	172
10.2430000000	155
10.2730000000	173
10.3030000000	164
10.3330000000	177
10.3630000000	172
10.3930000000	145
10.4230000000	182
10.4530000000	175
10.4830000000	150
10.5130000000	134
10.5430000000	166
10.5730000000	166
10.6030000000	165
10.6330000000	163
10.6630000000	159
10.6930000000	172
10.7230000000	170
10.7530000000	147
10.7830000000	164
10.8130000000	152
10.8430000000	174
10.8730000000	171
10.9030000000	133
10.9330000000	152
10.9630000000	188
10.9930000000	183
11.0230000000	187
11.0530000000	155
11.0830000000	170
11.1130000000	153
11.1430000000	148
11.1730000000	162
11.2030000000	171
11.2330000000	176
11.2630000000	179
11.2930000000	166
11.3230000000	173
11.3530000000	174
11.3830000000	174
11.4130000000	178
11.4430000000	153
11.4730000000	152
11.5030000000	164
11.5330000000	159
11.5630000000	142
11.5930000000	153
11.6230000000	162
11.6530000000	173
11.6830000000	196
11.7130000000	173
11.7430000000	166
11.7730000000	129
11.8030000000	164
11.8330000000	169
11.8630000000	144
11.8930000000	167
11.9230000000	160
11.9530000000	190
11.9830000000	164
12.0130000000	167
12.0430000000	180
12.0730000000	173
12.1030000000	166
12.1330000000	187
12.1630000000	175
12.1930000000	193
12.2230000000	174
12.2530000000	161
12.2830000000	166
12.3130000000	164
12.3430000000	157
12.3730000000	160
12.4030000000	175
12.4330000000	164
12.4630000000	152
12.4930000000	174
12.5230000000	161
12.5530000000	171
12.5830000000	184
12.6130000000	181
12.6430000000	172
12.6730000000	152
12.7030000000	150
12.7330000000	151
12.7630000000	169
12.7930000000	181
12.8230000000	184
12.8530000000	184
12.8830000000	169
12.9130000000	154
12.9430000000	168
12.9730000000	151
13.0030000000	159
13.0330000000	179
13.0630000000	153
13.0930000000	162
13.1230000000	169
13.1530000000	155
13.1830000000	171
13.2130000000	171
13.2430000000	144
13.2730000000	156
13.3030000000	167
13.3330000000	160
13.3630000000	164
13.3930000000	181
13.4230000000	160
13.4530000000	179
13.4830000000	159
13.5130000000	148
13.5430000000	162
13.5730000000	157
13.6030000000	165
13.6330000000	165
13.6630000000	165
13.6930000000	170
13.7230000000	132
13.7530000000	144
13.7830000000	171
13.8130000000	160
13.8430000000	140
13.8730000000	168
13.9030000000	167
13.9330000000	158
13.9630000000	171
13.9930000000	163
14.0230000000	169
14.0530000000	181
14.0830000000	152
14.1130000000	151
14.1430000000	156
14.1730000000	169
14.2030000000	172
14.2330000000	158
14.2630000000	165
14.2930000000	189
14.3230000000	162
14.3530000000	141
14.3830000000	169
14.4130000000	173
14.4430000000	163
14.4730000000	152
14.5030000000	168
14.5330000000	177
14.5630000000	171
14.5930000000	152
14.6230000000	186
14.6530000000	168
14.6830000000	169
14.7130000000	174
14.7430000000	157
14.7730000000	166
14.8030000000	167
14.8330000000	173
14.8630000000	192
14.8930000000	170
14.9230000000	163
14.9530000000	191
14.9830000000	154
15.0130000000	191
15.0430000000	184
15.0730000000	175
15.1030000000	173
15.1330000000	166
15.1630000000	173
15.1930000000	184
15.2230000000	172
15.2530000000	168
15.2830000000	196
15.3130000000	180
15.3430000000	210
15.3730000000	180
15.4030000000	171
15.4330000000	184
15.4630000000	191
15.4930000000	178
15.5230000000	174
15.5530000000	175
15.5830000000	176
15.6130000000	173
15.6430000000	181
15.6730000000	182
15.7030000000	185
15.7330000000	190
15.7630000000	181
15.7930000000	150
15.8230000000	167
15.8530000000	165
15.8830000000	189
15.9130000000	169
15.9430000000	160
15.9730000000	162
16.0030000000	161
16.0330000000	160
16.0630000000	174
16.0930000000	153
16.1230000000	162
16.1530000000	139
16.1830000000	164
16.2130000000	168
16.2430000000	152
16.2730000000	160
16.3030000000	149
16.3330000000	159
16.3630000000	164
16.3930000000	173
16.4230000000	136
16.4530000000	192
16.4830000000	172
16.5130000000	176
16.5430000000	189
16.5730000000	155
16.6030000000	169
16.6330000000	179
16.6630000000	180
16.6930000000	188
16.7230000000	173
16.7530000000	152
16.7830000000	173
16.8130000000	159
16.8430000000	159
16.8730000000	144
16.9030000000	169
16.9330000000	179
16.9630000000	152
16.9930000000	180
17.0230000000	172
17.0530000000	185
17.0830000000	178
17.1130000000	153
17.1430000000	165
17.1730000000	175
17.2030000000	178
17.2330000000	186
17.2630000000	172
17.2930000000	166
17.3230000000	178
17.3530000000	184
17.3830000000	178
17.4130000000	175
17.4430000000	186
17.4730000000	176
17.5030000000	189
17.5330000000	178
17.5630000000	194
17.5930000000	200
17.6230000000	193
17.6530000000	182
17.6830000000	184
17.7130000000	175
17.7430000000	170
17.7730000000	200
17.8030000000	180
17.8330000000	161
17.8630000000	183
17.8930000000	183
17.9230000000	186
17.9530000000	178
17.9830000000	158
18.0130000000	173
18.0430000000	186
18.0730000000	179
18.1030000000	187
18.1330000000	185
18.1630000000	181
18.1930000000	175
18.2230000000	163
18.2530000000	180
18.2830000000	182
18.3130000000	181
18.3430000000	165
18.3730000000	184
18.4030000000	181
18.4330000000	178
18.4630000000	173
18.4930000000	188
18.5230000000	172
18.5530000000	194
18.5830000000	175
18.6130000000	182
18.6430000000	188
18.6730000000	197
18.7030000000	185
18.7330000000	163
18.7630000000	185
18.7930000000	184
18.8230000000	192
18.8530000000	187
18.8830000000	164
18.9130000000	190
18.9430000000	189
18.9730000000	173
19.0030000000	168
19.0330000000	180
19.0630000000	184
19.0930000000	192
19.1230000000	202
19.1530000000	186
19.1830000000	198
19.2130000000	193
19.2430000000	178
19.2730000000	150
19.3030000000	172
19.3330000000	217
19.3630000000	199
19.3930000000	195
19.4230000000	205
19.4530000000	205
19.4830000000	200
19.5130000000	182
19.5430000000	195
19.5730000000	189
19.6030000000	185
19.6330000000	181
19.6630000000	185
19.6930000000	209
19.7230000000	191
19.7530000000	211
19.7830000000	181
19.8130000000	193
19.8430000000	210
19.8730000000	191
19.9030000000	195
19.9330000000	218
19.9630000000	185
19.9930000000	179
20.0230000000	185
20.0530000000	206
20.0830000000	219
20.1130000000	221
20.1430000000	211
20.1730000000	198
20.2030000000	222
20.2330000000	191
20.2630000000	197
20.2930000000	213
20.3230000000	224
20.3530000000	199
20.3830000000	199
20.4130000000	213
20.4430000000	207
20.4730000000	215
20.5030000000	216
20.5330000000	197
20.5630000000	215
20.5930000000	207
20.6230000000	202
20.6530000000	223
20.6830000000	212
20.7130000000	205
20.7430000000	212
20.7730000000	206
20.8030000000	190
20.8330000000	221
20.8630000000	208
20.8930000000	241
20.9230000000	228
20.9530000000	196
20.9830000000	217
21.0130000000	212
21.0430000000	203
21.0730000000	218
21.1030000000	230
21.1330000000	226
21.1630000000	203
21.1930000000	215
21.2230000000	218
21.2530000000	235
21.2830000000	240
21.3130000000	209
21.3430000000	220
21.3730000000	235
21.4030000000	223
21.4330000000	189
21.4630000000	223
21.4930000000	242
21.5230000000	238
21.5530000000	232
21.5830000000	238
21.6130000000	215
21.6430000000	220
21.6730000000	222
21.7030000000	246
21.7330000000	228
21.7630000000	221
21.7930000000	239
21.8230000000	211
21.8530000000	237
21.8830000000	246
21.9130000000	249
21.9430000000	242
21.9730000000	224
22.0030000000	234
22.0330000000	264
22.0630000000	257
22.0930000000	257
22.1230000000	247
22.1530000000	263
22.1830000000	261
22.2130000000	252
22.2430000000	240
22.2730000000	253
22.3030000000	274
22.3330000000	263
22.3630000000	255
22.3930000000	270
22.4230000000	279
22.4530000000	242
22.4830000000	238
22.5130000000	248
22.5430000000	267
22.5730000000	261
22.6030000000	247
22.6330000000	282
22.6630000000	276
22.6930000000	252
22.7230000000	251
22.7530000000	251
22.7830000000	271
22.8130000000	235
22.8430000000	250
22.8730000000	247
22.9030000000	258
22.9330000000	272
22.9630000000	260
22.9930000000	281
23.0230000000	233
23.0530000000	260
23.0830000000	257
23.1130000000	258
23.1430000000	234
23.1730000000	255
23.2030000000	223
23.2330000000	230
23.2630000000	249
23.2930000000	227
23.3230000000	238
23.3530000000	238
23.3830000000	275
23.4130000000	286
23.4430000000	243
23.4730000000	244
23.5030000000	232
23.5330000000	231
23.5630000000	261
23.5930000000	251
23.6230000000	277
23.6530000000	259
23.6830000000	216
23.7130000000	231
23.7430000000	260
23.7730000000	242
23.8030000000	268
23.8330000000	245
23.8630000000	267
23.8930000000	257
23.9230000000	259
23.9530000000	279
23.9830000000	268
24.0130000000	252
24.0430000000	232
24.0730000000	254
24.1030000000	255
24.1330000000	234
24.1630000000	232
24.1930000000	256
24.2230000000	266
24.2530000000	236
24.2830000000	241
24.3130000000	230
24.3430000000	249
24.3730000000	252
24.4030000000	240
24.4330000000	237
24.4630000000	229
24.4930000000	236
24.5230000000	275
24.5530000000	244
24.5830000000	256
24.6130000000	241
24.6430000000	218
24.6730000000	223
24.7030000000	233
24.7330000000	263
24.7630000000	235
24.7930000000	249
24.8230000000	223
24.8530000000	255
24.8830000000	247
24.9130000000	251
24.9430000000	246
24.9730000000	239
25.0030000000	211
25.0330000000	214
25.0630000000	256
25.0930000000	215
25.1230000000	235
25.1530000000	231
25.1830000000	230
25.2130000000	224
25.2430000000	255
25.2730000000	246
25.3030000000	242
25.3330000000	204
25.3630000000	240
25.3930000000	264
25.4230000000	262
25.4530000000	232
25.4830000000	238
25.5130000000	202
25.5430000000	206
25.5730000000	224
25.6030000000	252
25.6330000000	221
25.6630000000	236
25.6930000000	248
25.7230000000	224
25.7530000000	227
25.7830000000	239
25.8130000000	227
25.8430000000	231
25.8730000000	219
25.9030000000	234
25.9330000000	224
25.9630000000	229
25.9930000000	239
26.0230000000	212
26.0530000000	211
26.0830000000	229
26.1130000000	233
26.1430000000	215
26.1730000000	213
26.2030000000	241
26.2330000000	224
26.2630000000	242
26.2930000000	211
26.3230000000	232
26.3530000000	231
26.3830000000	231
26.4130000000	254
26.4430000000	229
26.4730000000	228
26.5030000000	244
26.5330000000	211
26.5630000000	219
26.5930000000	221
26.6230000000	206
26.6530000000	232
26.6830000000	232
26.7130000000	239
26.7430000000	220
26.7730000000	231
26.8030000000	225
26.8330000000	198
26.8630000000	205
26.8930000000	203
26.9230000000	210
26.9530000000	223
26.9830000000	213
27.0130000000	220
27.0430000000	233
27.0730000000	234
27.1030000000	215
27.1330000000	202
27.1630000000	226
27.1930000000	240
27.2230000000	235
27.2530000000	232
27.2830000000	195
27.3130000000	246
27.3430000000	208
27.3730000000	198
27.4030000000	203
27.4330000000	231
27.4630000000	196
27.4930000000	195
27.5230000000	215
27.5530000000	203
27.5830000000	231
27.6130000000	204
27.6430000000	232
27.6730000000	230
27.7030000000	193
27.7330000000	210
27.7630000000	216
27.7930000000	226
27.8230000000	214
27.8530000000	214
27.8830000000	234
27.9130000000	244
27.9430000000	221
27.9730000000	208
28.0030000000	237
28.0330000000	233
28.0630000000	211
28.0930000000	217
28.1230000000	213
28.1530000000	225
28.1830000000	221
28.2130000000	258
28.2430000000	230
28.2730000000	203
28.3030000000	223
28.3330000000	224
28.3630000000	246
28.3930000000	216
28.4230000000	249
28.4530000000	209
28.4830000000	230
28.5130000000	217
28.5430000000	233
28.5730000000	231
28.6030000000	230
28.6330000000	217
28.6630000000	230
28.6930000000	207
28.7230000000	228
28.7530000000	238
28.7830000000	207
28.8130000000	234
28.8430000000	230
28.8730000000	214
28.9030000000	190
28.9330000000	208
28.9630000000	211
28.9930000000	201
29.0230000000	210
29.0530000000	240
29.0830000000	211
29.1130000000	215
29.1430000000	219
29.1730000000	226
29.2030000000	194
29.2330000000	210
29.2630000000	180
29.2930000000	198
29.3230000000	212
29.3530000000	207
29.3830000000	189
29.4130000000	198
29.4430000000	212
29.4730000000	195
29.5030000000	196
29.5330000000	211
29.5630000000	217
29.5930000000	207
29.6230000000	204
29.6530000000	178
29.6830000000	198
29.7130000000	174
29.7430000000	199
29.7730000000	200
29.8030000000	224
29.8330000000	204
29.8630000000	231
29.8930000000	213
29.9230000000	225
29.9530000000	185
29.9830000000	213
30.0130000000	189
30.0430000000	189
30.0730000000	224
30.1030000000	208
30.1330000000	197
30.1630000000	205
30.1930000000	204
30.2230000000	193
30.2530000000	214
30.2830000000	189
30.3130000000	221
30.3430000000	199
30.3730000000	186
30.4030000000	204
30.4330000000	221
30.4630000000	211
30.4930000000	195
30.5230000000	192
30.5530000000	186
30.5830000000	204
30.6130000000	238
30.6430000000	188
30.6730000000	204
30.7030000000	204
30.7330000000	216
30.7630000000	212
30.7930000000	208
30.8230000000	202
30.8530000000	215
30.8830000000	203
30.9130000000	187
30.9430000000	196
30.9730000000	201
31.0030000000	209
31.0330000000	200
31.0630000000	232
31.0930000000	207
31.1230000000	233
31.1530000000	181
31.1830000000	173
31.2130000000	206
31.2430000000	217
31.2730000000	228
31.3030000000	186
31.3330000000	218
31.3630000000	207
31.3930000000	191
31.4230000000	229
31.4530000000	206
31.4830000000	206
31.5130000000	214
31.5430000000	224
31.5730000000	205
31.6030000000	191
31.6330000000	192
31.6630000000	176
31.6930000000	207
31.7230000000	208
31.7530000000	181
31.7830000000	189
31.8130000000	188
31.8430000000	215
31.8730000000	195
31.9030000000	195
31.9330000000	197
31.9630000000	200
31.9930000000	182
32.0230000000	176
32.0530000000	188
32.0830000000	185
32.1130000000	174
32.1430000000	176
32.1730000000	161
32.2030000000	173
32.2330000000	189
32.2630000000	172
32.2930000000	173
32.3230000000	182
32.3530000000	178
32.3830000000	184
32.4130000000	175
32.4430000000	168
32.4730000000	190
32.5030000000	170
32.5330000000	172
32.5630000000	149
32.5930000000	155
32.6230000000	180
32.6530000000	196
32.6830000000	169
32.7130000000	173
32.7430000000	175
32.7730000000	186
32.8030000000	195
32.8330000000	154
32.8630000000	170
32.8930000000	183
32.9230000000	171
32.9530000000	172
32.9830000000	166
33.0130000000	180
33.0430000000	179
33.0730000000	181
33.1030000000	166
33.1330000000	161
33.1630000000	162
33.1930000000	171
33.2230000000	210
33.2530000000	184
33.2830000000	156
33.3130000000	164
33.3430000000	168
33.3730000000	155
33.4030000000	163
33.4330000000	153
33.4630000000	179
33.4930000000	160
33.5230000000	166
33.5530000000	188
33.5830000000	160
33.6130000000	179
33.6430000000	162
33.6730000000	143
33.7030000000	180
33.7330000000	170
33.7630000000	144
33.7930000000	167
33.8230000000	170
33.8530000000	169
33.8830000000	171
33.9130000000	174
33.9430000000	147
33.9730000000	128
34.0030000000	139
34.0330000000	174
34.0630000000	163
34.0930000000	158
34.1230000000	172
34.1530000000	175
34.1830000000	172
34.2130000000	184
34.2430000000	173
34.2730000000	172
34.3030000000	164
34.3330000000	166
34.3630000000	141
34.3930000000	148
34.4230000000	162
34.4530000000	156
34.4830000000	167
34.5130000000	152
34.5430000000	143
34.5730000000	159
34.6030000000	132
34.6330000000	153
34.6630000000	163
34.6930000000	146
34.7230000000	146
34.7530000000	166
34.7830000000	159
34.8130000000	134
34.8430000000	153
34.8730000000	147
34.9030000000	165
34.9330000000	152
34.9630000000	148
34.9930000000	133
35.0230000000	133
35.0530000000	154
35.0830000000	156
35.1130000000	160
35.1430000000	156
35.1730000000	158
35.2030000000	151
35.2330000000	151
35.2630000000	131
35.2930000000	162
35.3230000000	148
35.3530000000	126
35.3830000000	135
35.4130000000	136
35.4430000000	142
35.4730000000	148
35.5030000000	147
35.5330000000	145
35.5630000000	124
35.5930000000	135
35.6230000000	145
35.6530000000	160
35.6830000000	152
35.7130000000	147
35.7430000000	138
35.7730000000	137
35.8030000000	147
35.8330000000	138
35.8630000000	135
35.8930000000	158
35.9230000000	135
35.9530000000	142
35.9830000000	133
36.0130000000	150
36.0430000000	145
36.0730000000	131
36.1030000000	146
36.1330000000	150
36.1630000000	122
36.1930000000	137
36.2230000000	111
36.2530000000	146
36.2830000000	143
36.3130000000	136
36.3430000000	132
36.3730000000	146
36.4030000000	141
36.4330000000	112
36.4630000000	132
36.4930000000	139
36.5230000000	139
36.5530000000	140
36.5830000000	116
36.6130000000	137
36.6430000000	121
36.6730000000	130
36.7030000000	127
36.7330000000	133
36.7630000000	124
36.7930000000	136
36.8230000000	133
36.8530000000	117
36.8830000000	138
36.9130000000	129
36.9430000000	132
36.9730000000	120
37.0030000000	140
37.0330000000	128
37.0630000000	127
37.0930000000	122
37.1230000000	124
37.1530000000	122
37.1830000000	124
37.2130000000	116
37.2430000000	106
37.2730000000	124
37.3030000000	127
37.3330000000	116
37.3630000000	118
37.3930000000	127
37.4230000000	119
37.4530000000	113
37.4830000000	94
37.5130000000	96
37.5430000000	118
37.5730000000	113
37.6030000000	103
37.6330000000	122
37.6630000000	109
37.6930000000	102
37.7230000000	139
37.7530000000	120
37.7830000000	121
37.8130000000	119
37.8430000000	109
37.8730000000	114
37.9030000000	117
37.9330000000	115
37.9630000000	122
37.9930000000	117
38.0230000000	119
38.0530000000	111
38.0830000000	107
38.1130000000	126
38.1430000000	132
38.1730000000	119
38.2030000000	116
38.2330000000	116
38.2630000000	108
38.2930000000	125
38.3230000000	122
38.3530000000	108
38.3830000000	114
38.4130000000	120
38.4430000000	114
38.4730000000	109
38.5030000000	98
38.5330000000	109
38.5630000000	116
38.5930000000	111
38.6230000000	118
38.6530000000	124
38.6830000000	122
38.7130000000	111
38.7430000000	106
38.7730000000	115
38.8030000000	115
38.8330000000	113
38.8630000000	110
38.8930000000	113
38.9230000000	115
38.9530000000	114
38.9830000000	111
39.0130000000	103
39.0430000000	113
39.0730000000	106
39.1030000000	112
39.1330000000	120
39.1630000000	115
39.1930000000	108
39.2230000000	119
39.2530000000	103
39.2830000000	102
39.3130000000	126
39.3430000000	109
39.3730000000	119
39.4030000000	100
39.4330000000	113
39.4630000000	93
39.4930000000	109
39.5230000000	113
39.5530000000	98
39.5830000000	122
39.6130000000	85
39.6430000000	105
39.6730000000	92
39.7030000000	104
39.7330000000	91
39.7630000000	120
39.7930000000	82
39.8230000000	77
39.8530000000	83
39.8830000000	115
39.9130000000	108
39.9430000000	112
39.9730000000	108
40.0030000000	84
40.0330000000	82
40.0630000000	114
40.0930000000	112
40.1230000000	110
40.1530000000	104
40.1830000000	108
40.2130000000	84
40.2430000000	106
40.2730000000	105
40.3030000000	76
40.3330000000	99
40.3630000000	87
40.3930000000	87
40.4230000000	94
40.4530000000	108
40.4830000000	105
40.5130000000	99
40.5430000000	89
40.5730000000	119
40.6030000000	109
40.6330000000	111
40.6630000000	97
40.6930000000	84
40.7230000000	118
40.7530000000	99
40.7830000000	110
40.8130000000	116
40.8430000000	94
40.8730000000	103
40.9030000000	118
40.9330000000	112
40.9630000000	105
40.9930000000	104
41.0230000000	86
41.0530000000	107
41.0830000000	102
41.1130000000	95
41.1430000000	115
41.1730000000	84
41.2030000000	89
41.2330000000	102
41.2630000000	114
41.2930000000	109
41.3230000000	128
41.3530000000	109
41.3830000000	101
41.4130000000	78
41.4430000000	96
41.4730000000	116
41.5030000000	108
41.5330000000	93
41.5630000000	87
41.5930000000	93
41.6230000000	91
41.6530000000	116
41.6830000000	101
41.7130000000	88
41.7430000000	107
41.7730000000	101
41.8030000000	94
41.8330000000	81
41.8630000000	102
41.8930000000	98
41.9230000000	81
41.9530000000	87
41.9830000000	86
42.0130000000	74
42.0430000000	91
42.0730000000	93
42.1030000000	92
42.1330000000	109
42.1630000000	85
42.1930000000	94
42.2230000000	107
42.2530000000	88
42.2830000000	96
42.3130000000	101
42.3430000000	96
42.3730000000	100
42.4030000000	87
42.4330000000	92
42.4630000000	96
42.4930000000	81
42.5230000000	93
42.5530000000	95
42.5830000000	93
42.6130000000	107
42.6430000000	106
42.6730000000	93
42.7030000000	86
42.7330000000	90
42.7630000000	96
42.7930000000	102
42.8230000000	94
42.8530000000	96
42.8830000000	103
42.9130000000	90
42.9430000000	89
42.9730000000	80
43.0030000000	84
43.0330000000	91
43.0630000000	94
43.0930000000	100
43.1230000000	93
43.1530000000	74
43.1830000000	78
43.2130000000	70
43.2430000000	107
43.2730000000	91
43.3030000000	93
43.3330000000	103
43.3630000000	87
43.3930000000	95
43.4230000000	98
43.4530000000	89
43.4830000000	95
43.5130000000	80
43.5430000000	86
43.5730000000	89
43.6030000000	77
43.6330000000	83
43.6630000000	83
43.6930000000	78
43.7230000000	95
43.7530000000	98
43.7830000000	87
43.8130000000	99
43.8430000000	93
43.8730000000	75
43.9030000000	80
43.9330000000	84
43.9630000000	80
43.9930000000	101
44.0230000000	106
44.0530000000	87
44.0830000000	97
44.1130000000	82
44.1430000000	68
44.1730000000	68
44.2030000000	91
44.2330000000	96
44.2630000000	81
44.2930000000	101
44.3230000000	86
44.3530000000	72
44.3830000000	85
44.4130000000	85
44.4430000000	70
44.4730000000	93
44.5030000000	79
44.5330000000	88
44.5630000000	85
44.5930000000	88
44.6230000000	95
44.6530000000	98
44.6830000000	82
44.7130000000	85
44.7430000000	73
44.7730000000	83
44.8030000000	84
44.8330000000	84
44.8630000000	86
44.8930000000	80
44.9230000000	93
44.9530000000	73
44.9830000000	82
45.0130000000	95
45.0430000000	76
45.0730000000	84
45.1030000000	63
45.1330000000	84
45.1630000000	73
45.1930000000	66
45.2230000000	88
45.2530000000	94
45.2830000000	80
45.3130000000	74
45.3430000000	65
45.3730000000	78
45.4030000000	88
45.4330000000	74
45.4630000000	76
45.4930000000	88
45.5230000000	85
45.5530000000	73
45.5830000000	78
45.6130000000	82
45.6430000000	81
45.6730000000	79
45.7030000000	74
45.7330000000	77
45.7630000000	82
45.7930000000	77
45.8230000000	75
45.8530000000	77
45.8830000000	72
45.9130000000	83
45.9430000000	57
45.9730000000	71
46.0030000000	81
46.0330000000	80
46.0630000000	86
46.0930000000	77
46.1230000000	80
46.1530000000	75
46.1830000000	77
46.2130000000	80
46.2430000000	79
46.2730000000	70
46.3030000000	84
46.3330000000	68
46.3630000000	81
46.3930000000	102
46.4230000000	84
46.4530000000	83
46.4830000000	69
46.5130000000	81
46.5430000000	76
46.5730000000	81
46.6030000000	66
46.6330000000	77
46.6630000000	83
46.6930000000	71
46.7230000000	68
46.7530000000	88
46.7830000000	84
46.8130000000	82
46.8430000000	73
46.8730000000	88
46.9030000000	96
46.9330000000	76
46.9630000000	75
46.9930000000	83
47.0230000000	70
47.0530000000	56
47.0830000000	71
47.1130000000	79
47.1430000000	78
47.1730000000	69
47.2030000000	72
47.2330000000	74
47.2630000000	74
47.2930000000	78
47.3230000000	75
47.3530000000	70
47.3830000000	83
47.4130000000	76
47.4430000000	70
47.4730000000	70
47.5030000000	84
47.5330000000	84
47.5630000000	83
47.5930000000	89
47.6230000000	77
47.6530000000	73
47.6830000000	82
47.7130000000	85
47.7430000000	64
47.7730000000	77
47.8030000000	85
47.8330000000	61
47.8630000000	65
47.8930000000	86
47.9230000000	68
47.9530000000	68
47.9830000000	78
48.0130000000	79
48.0430000000	71
48.0730000000	80
48.1030000000	62
48.1330000000	61
48.1630000000	69
48.1930000000	67
48.2230000000	66
48.2530000000	75
48.2830000000	60
48.3130000000	77
48.3430000000	77
48.3730000000	69
48.4030000000	73
48.4330000000	61
48.4630000000	72
48.4930000000	70
48.5230000000	66
48.5530000000	69
48.5830000000	71
48.6130000000	64
48.6430000000	68
48.6730000000	81
48.7030000000	66
48.7330000000	73
48.7630000000	68
48.7930000000	62
48.8230000000	66
48.8530000000	64
48.8830000000	72
48.9130000000	78
48.9430000000	79
48.9730000000	76
49.0030000000	79
49.0330000000	83
49.0630000000	68
49.0930000000	65
49.1230000000	64
49.1530000000	64
49.1830000000	77
49.2130000000	71
49.2430000000	59
49.2730000000	62
49.3030000000	50
49.3330000000	51
49.3630000000	64
49.3930000000	73
49.4230000000	69
49.4530000000	79
49.4830000000	73
49.5130000000	67
49.5430000000	79
49.5730000000	62
49.6030000000	63
49.6330000000	68
49.6630000000	63
49.6930000000	73
49.7230000000	69
49.7530000000	56
49.7830000000	70
49.8130000000	54
49.8430000000	64
49.8730000000	78
49.9030000000	71
49.9330000000	68
49.9630000000	70
49.9930000000	64
50.0230000000	76
50.0530000000	68
50.0830000000	79
50.1130000000	57
50.1430000000	61
50.1730000000	59
50.2030000000	60
50.2330000000	66
50.2630000000	61
50.2930000000	63
50.3230000000	67
50.3530000000	70
50.3830000000	83
50.4130000000	71
50.4430000000	58
50.4730000000	59
50.5030000000	56
50.5330000000	63
50.5630000000	57
50.5930000000	63
50.6230000000	65
50.6530000000	61
50.6830000000	67
50.7130000000	71
50.7430000000	72
50.7730000000	65
50.8030000000	56
50.8330000000	52
50.8630000000	61
50.8930000000	58
50.9230000000	59
50.9530000000	60
50.9830000000	52
51.0130000000	61
51.0430000000	74
51.0730000000	61
51.1030000000	54
51.1330000000	66
51.1630000000	60
51.1930000000	50
51.2230000000	53
51.2530000000	52
51.2830000000	56
51.3130000000	59
51.3430000000	63
51.3730000000	67
51.4030000000	62
51.4330000000	68
51.4630000000	67
51.4930000000	60
51.5230000000	67
51.5530000000	68
51.5830000000	62
51.6130000000	58
51.6430000000	59
51.6730000000	59
51.7030000000	56
51.7330000000	61
51.7630000000	62
51.7930000000	45
51.8230000000	62
51.8530000000	53
51.8830000000	62
51.9130000000	55
51.9430000000	56
51.9730000000	57
52.0030000000	65
52.0330000000	70
52.0630000000	73
52.0930000000	57
52.1230000000	50
52.1530000000	59
52.1830000000	66
52.2130000000	57
52.2430000000	56
52.2730000000	51
52.3030000000	51
52.3330000000	54
52.3630000000	56
52.3930000000	58
52.4230000000	51
52.4530000000	56
52.4830000000	43
52.5130000000	47
52.5430000000	60
52.5730000000	61
52.6030000000	64
52.6330000000	58
52.6630000000	43
52.6930000000	54
52.7230000000	62
52.7530000000	58
52.7830000000	64
52.8130000000	51
52.8430000000	54
52.8730000000	48
52.9030000000	59
52.9330000000	57
52.9630000000	46
52.9930000000	73
53.0230000000	61
53.0530000000	65
53.0830000000	56
53.1130000000	42
53.1430000000	36
53.1730000000	50
53.2030000000	50
53.2330000000	47
53.2630000000	58
53.2930000000	60
53.3230000000	59
53.3530000000	44
53.3830000000	50
53.4130000000	38
53.4430000000	40
53.4730000000	49
53.5030000000	53
53.5330000000	56
53.5630000000	51
53.5930000000	61
53.6230000000	60
53.6530000000	63
53.6830000000	54
53.7130000000	53
53.7430000000	60
53.7730000000	50
53.8030000000	55
53.8330000000	55
53.8630000000	42
53.8930000000	43
53.9230000000	39
53.9530000000	55
53.9830000000	58
54.0130000000	58
54.0430000000	64
54.0730000000	49
54.1030000000	54
54.1330000000	41
54.1630000000	62
54.1930000000	62
54.2230000000	67
54.2530000000	53
54.2830000000	53
54.3130000000	53
54.3430000000	52
54.3730000000	52
54.4030000000	59
54.4330000000	56
54.4630000000	52
54.4930000000	56
54.5230000000	63
54.5530000000	60
54.5830000000	60
54.6130000000	59
54.6430000000	55
54.6730000000	51
54.7030000000	48
54.7330000000	50
54.7630000000	37
54.7930000000	46
54.8230000000	55
54.8530000000	57
54.8830000000	48
54.9130000000	47
54.9430000000	59
54.9730000000	45
55.0030000000	45
55.0330000000	48
55.0630000000	58
55.0930000000	51
55.1230000000	47
55.1530000000	47
55.1830000000	49
55.2130000000	58
55.2430000000	65
55.2730000000	47
55.3030000000	53
55.3330000000	47
55.3630000000	56
55.3930000000	41
55.4230000000	67
55.4530000000	67
55.4830000000	60
55.5130000000	60
55.5430000000	50
55.5730000000	43
55.6030000000	52
55.6330000000	49
55.6630000000	58
55.6930000000	66
55.7230000000	46
55.7530000000	50
55.7830000000	48
55.8130000000	52
55.8430000000	47
55.8730000000	41
55.9030000000	50
55.9330000000	45
55.9630000000	60
55.9930000000	60
56.0230000000	42
56.0530000000	44
56.0830000000	54
56.1130000000	58
56.1430000000	59
56.1730000000	59
56.2030000000	51
56.2330000000	61
56.2630000000	46
56.2930000000	54
56.3230000000	50
56.3530000000	44
56.3830000000	45
56.4130000000	48
56.4430000000	47
56.4730000000	43
56.5030000000	57
56.5330000000	52
56.5630000000	40
56.5930000000	50
56.6230000000	53
56.6530000000	46
56.6830000000	47
56.7130000000	41
56.7430000000	44
56.7730000000	51
56.8030000000	52
56.8330000000	57
56.8630000000	43
56.8930000000	47
56.9230000000	57
56.9530000000	51
56.9830000000	48
57.0130000000	54
57.0430000000	52
57.0730000000	49
57.1030000000	56
57.1330000000	38
57.1630000000	32
57.1930000000	62
57.2230000000	45
57.2530000000	52
57.2830000000	46
57.3130000000	51
57.3430000000	60
57.3730000000	49
57.4030000000	47
57.4330000000	49
57.4630000000	50
57.4930000000	53
57.5230000000	56
57.5530000000	38
57.5830000000	40
57.6130000000	42
57.6430000000	52
57.6730000000	35
57.7030000000	45
57.7330000000	44
57.7630000000	38
57.7930000000	41
57.8230000000	45
57.8530000000	55
57.8830000000	55
57.9130000000	47
57.9430000000	44
57.9730000000	34
58.0030000000	38
58.0330000000	50
58.0630000000	47
58.0930000000	42
58.1230000000	41
58.1530000000	49
58.1830000000	52
58.2130000000	40
58.2430000000	44
58.2730000000	51
58.3030000000	38
58.3330000000	57
58.3630000000	58
58.3930000000	56
58.4230000000	46
58.4530000000	58
58.4830000000	58
58.5130000000	54
58.5430000000	37
58.5730000000	40
58.6030000000	49
58.6330000000	46
58.6630000000	46
58.6930000000	38
58.7230000000	35
58.7530000000	45
58.7830000000	59
58.8130000000	40
58.8430000000	39
58.8730000000	42
58.9030000000	44
58.9330000000	46
58.9630000000	57
58.9930000000	52
59.0230000000	45
59.0530000000	44
59.0830000000	52
59.1130000000	52
59.1430000000	50
59.1730000000	39
59.2030000000	40
59.2330000000	41
59.2630000000	42
59.2930000000	41
59.3230000000	50
59.3530000000	50
59.3830000000	44
59.4130000000	52
59.4430000000	42
59.4730000000	39
59.5030000000	42
59.5330000000	46
59.5630000000	48
59.5930000000	24
59.6230000000	45
59.6530000000	31
59.6830000000	43
59.7130000000	44
59.7430000000	58
59.7730000000	59
59.8030000000	44
59.8330000000	48
59.8630000000	37
59.8930000000	44
59.9230000000	47
59.9530000000	59
59.9830000000	63
60.0130000000	39
60.0430000000	54
60.0730000000	47
60.1030000000	50
60.1330000000	49
60.1630000000	38
60.1930000000	43
60.2230000000	42
60.2530000000	38
60.2830000000	39
60.3130000000	44
60.3430000000	52
60.3730000000	34
60.4030000000	48
60.4330000000	57
60.4630000000	43
60.4930000000	41
60.5230000000	45
60.5530000000	33
60.5830000000	56
60.6130000000	47
60.6430000000	47
60.6730000000	40
60.7030000000	41
60.7330000000	42
60.7630000000	45
60.7930000000	45
60.8230000000	46
60.8530000000	41
60.8830000000	35
60.9130000000	42
60.9430000000	38
60.9730000000	42
61.0030000000	41
61.0330000000	46
61.0630000000	31
61.0930000000	46
61.1230000000	50
61.1530000000	46
61.1830000000	42
61.2130000000	51
61.2430000000	37
61.2730000000	41
61.3030000000	37
61.3330000000	40
61.3630000000	45
61.3930000000	42
61.4230000000	45
61.4530000000	40
61.4830000000	40
61.5130000000	38
61.5430000000	37
61.5730000000	48
61.6030000000	44
61.6330000000	45
61.6630000000	37
61.6930000000	34
61.7230000000	44
61.7530000000	40
61.7830000000	46
61.8130000000	27
61.8430000000	38
61.8730000000	42
61.9030000000	50
61.9330000000	47
61.9630000000	49
61.9930000000	53
62.0230000000	39
62.0530000000	35
62.0830000000	51
62.1130000000	49
62.1430000000	49
62.1730000000	34
62.2030000000	49
62.2330000000	35
62.2630000000	37
62.2930000000	34
62.3230000000	35
62.3530000000	44
62.3830000000	46
62.4130000000	42
62.4430000000	52
62.4730000000	35
62.5030000000	38
62.5330000000	41
62.5630000000	50
62.5930000000	43
62.6230000000	37
62.6530000000	51
62.6830000000	48
62.7130000000	44
62.7430000000	49
62.7730000000	47
62.8030000000	44
62.8330000000	43
62.8630000000	43
62.8930000000	46
62.9230000000	42
62.9530000000	42
62.9830000000	51
63.0130000000	44
63.0430000000	39
63.0730000000	42
63.1030000000	47
63.1330000000	41
63.1630000000	37
63.1930000000	47
63.2230000000	45
63.2530000000	40
63.2830000000	57
63.3130000000	60
63.3430000000	45
63.3730000000	41
63.4030000000	45
63.4330000000	54
63.4630000000	55
63.4930000000	52
63.5230000000	37
63.5530000000	42
63.5830000000	54
63.6130000000	46
63.6430000000	34
63.6730000000	37
63.7030000000	49
63.7330000000	35
63.7630000000	48
63.7930000000	51
63.8230000000	35
63.8530000000	33
63.8830000000	34
63.9130000000	55
63.9430000000	44
63.9730000000	37
64.0030000000	37
64.0330000000	38
64.0630000000	35
64.0930000000	34
64.1230000000	37
64.1530000000	37
64.1830000000	50
64.2130000000	48
64.2430000000	45
64.2730000000	40
64.3030000000	33
64.3330000000	30
64.3630000000	39
64.3930000000	49
64.4230000000	45
64.4530000000	44
64.4830000000	42
64.5130000000	44
64.5430000000	35
64.5730000000	38
64.6030000000	31
64.6330000000	37
64.6630000000	43
64.6930000000	29
64.7230000000	44
64.7530000000	46
64.7830000000	49
64.8130000000	32
64.8430000000	47
64.8730000000	39
64.9030000000	37
64.9330000000	37
64.9630000000	43
64.9930000000	41
65.0230000000	57
65.0530000000	41
65.0830000000	38
65.1130000000	38
65.1430000000	40
65.1730000000	42
65.2030000000	48
65.2330000000	53
65.2630000000	49
65.2930000000	36
65.3230000000	35
65.3530000000	36
65.3830000000	47
65.4130000000	41
65.4430000000	29
65.4730000000	37
65.5030000000	38
65.5330000000	48
65.5630000000	38
65.5930000000	41
65.6230000000	44
65.6530000000	42
65.6830000000	49
65.7130000000	52
65.7430000000	45
65.7730000000	54
65.8030000000	53
65.8330000000	36
65.8630000000	39
65.8930000000	49
65.9230000000	36
65.9530000000	37
65.9830000000	50
66.0130000000	43
66.0430000000	33
66.0730000000	34
66.1030000000	41
66.1330000000	50
66.1630000000	24
66.1930000000	40
66.2230000000	34
66.2530000000	49
66.2830000000	41
66.3130000000	40
66.3430000000	44
66.3730000000	44
66.4030000000	32
66.4330000000	34
66.4630000000	39
66.4930000000	33
66.5230000000	37
66.5530000000	49
66.5830000000	44
66.6130000000	34
66.6430000000	42
66.6730000000	43
66.7030000000	40
66.7330000000	52
66.7630000000	44
66.7930000000	42
66.8230000000	48
66.8530000000	39
66.8830000000	42
66.9130000000	48
66.9430000000	30
66.9730000000	35
67.0030000000	47
67.0330000000	44
67.0630000000	38
67.0930000000	37
67.1230000000	42
67.1530000000	37
67.1830000000	42
67.2130000000	51
67.2430000000	38
67.2730000000	35
67.3030000000	46
67.3330000000	35
67.3630000000	45
67.3930000000	59
67.4230000000	35
67.4530000000	32
67.4830000000	41
67.5130000000	44
67.5430000000	35
67.5730000000	41
67.6030000000	34
67.6330000000	34
67.6630000000	34
67.6930000000	37
67.7230000000	37
67.7530000000	46
67.7830000000	45
67.8130000000	42
67.8430000000	43
67.8730000000	35
67.9030000000	26
67.9330000000	37
67.9630000000	34
67.9930000000	42
68.0230000000	36
68.0530000000	37
68.0830000000	34
68.1130000000	40
68.1430000000	33
68.1730000000	44
68.2030000000	35
68.2330000000	47
68.2630000000	40
68.2930000000	30
68.3230000000	29
68.3530000000	35
68.3830000000	38
68.4130000000	37
68.4430000000	52
68.4730000000	34
68.5030000000	44
68.5330000000	50
68.5630000000	45
68.5930000000	42
68.6230000000	40
68.6530000000	40
68.6830000000	40
68.7130000000	36
68.7430000000	35
68.7730000000	46
68.8030000000	35
68.8330000000	35
68.8630000000	36
68.8930000000	40
68.9230000000	39
68.9530000000	43
68.9830000000	39
69.0130000000	29
69.0430000000	44
69.0730000000	41
69.1030000000	41
69.1330000000	47
69.1630000000	37
69.1930000000	35
69.2230000000	29
69.2530000000	60
69.2830000000	61
69.3130000000	37
69.3430000000	37
69.3730000000	48
69.4030000000	31
69.4330000000	40
69.4630000000	45
69.4930000000	33
69.5230000000	33
69.5530000000	34
69.5830000000	42
69.6130000000	43
69.6430000000	37
69.6730000000	35
69.7030000000	37
69.7330000000	42
69.7630000000	41
69.7930000000	42
69.8230000000	29
69.8530000000	35
69.8830000000	37
69.9130000000	32
69.9430000000	41
69.9730000000	42
70.0030000000	29
70.0330000000	42
70.0630000000	39
70.0930000000	37
70.1230000000	33
70.1530000000	33
70.1830000000	34
70.2130000000	42
70.2430000000	35
70.2730000000	41
70.3030000000	37
70.3330000000	46
70.3630000000	42
70.3930000000	41
70.4230000000	29
70.4530000000	40
70.4830000000	48
70.5130000000	35
70.5430000000	37
70.5730000000	40
70.6030000000	34
70.6330000000	35
70.6630000000	42
70.6930000000	40
70.7230000000	38
70.7530000000	42
70.7830000000	35
70.8130000000	36
70.8430000000	33
70.8730000000	41
70.9030000000	38
70.9330000000	36
70.9630000000	40
70.9930000000	43
71.0230000000	38
71.0530000000	40
71.0830000000	42
71.1130000000	42
71.1430000000	42
71.1730000000	36
71.2030000000	31
71.2330000000	37
71.2630000000	37
71.2930000000	39
71.3230000000	42
71.3530000000	31
71.3830000000	49
71.4130000000	43
71.4430000000	36
71.4730000000	42
71.5030000000	37
71.5330000000	37
71.5630000000	43
71.5930000000	29
71.6230000000	31
71.6530000000	48
71.6830000000	35
71.7130000000	37
71.7430000000	34
71.7730000000	25
71.8030000000	45
71.8330000000	35
71.8630000000	27
71.8930000000	32
71.9230000000	30
71.9530000000	37
71.9830000000	42
72.0130000000	28
72.0430000000	37
72.0730000000	49
72.1030000000	41
72.1330000000	50
72.1630000000	36
72.1930000000	42
72.2230000000	39
72.2530000000	39
72.2830000000	37
72.3130000000	34
72.3430000000	46
72.3730000000	30
72.4030000000	40
72.4330000000	42
72.4630000000	31
72.4930000000	41
72.5230000000	38
72.5530000000	34
72.5830000000	36
72.6130000000	35
72.6430000000	26
72.6730000000	39
72.7030000000	35
72.7330000000	43
72.7630000000	39
72.7930000000	44
72.8230000000	44
72.8530000000	37
72.8830000000	39
72.9130000000	53
72.9430000000	34
72.9730000000	36
73.0030000000	41
73.0330000000	58
73.0630000000	42
73.0930000000	48
73.1230000000	47
73.1530000000	32
73.1830000000	30
73.2130000000	40
73.2430000000	42
73.2730000000	40
73.3030000000	43
73.3330000000	35
73.3630000000	35
73.3930000000	38
73.4230000000	42
73.4530000000	44
73.4830000000	36
73.5130000000	44
73.5430000000	42
73.5730000000	39
73.6030000000	33
73.6330000000	37
73.6630000000	41
73.6930000000	44
73.7230000000	47
73.7530000000	35
73.7830000000	34
73.8130000000	27
73.8430000000	31
73.8730000000	47
73.9030000000	31
73.9330000000	36
73.9630000000	46
73.9930000000	36
74.0230000000	36
74.0530000000	29
74.0830000000	35
74.1130000000	34
74.1430000000	39
74.1730000000	46
74.2030000000	34
74.2330000000	34
74.2630000000	41
74.2930000000	39
74.3230000000	36
74.3530000000	42
74.3830000000	37
74.4130000000	42
74.4430000000	43
74.4730000000	45
74.5030000000	36
74.5330000000	24
74.5630000000	32
74.5930000000	33
74.6230000000	35
74.6530000000	40
74.6830000000	36
74.7130000000	36
74.7430000000	41
74.7730000000	36
74.8030000000	33
74.8330000000	38
74.8630000000	37
74.8930000000	33
74.9230000000	25
74.9530000000	40
74.9830000000	32
75.0130000000	42
75.0430000000	37
75.0730000000	46
75.1030000000	41
75.1330000000	42
75.1630000000	33
75.1930000000	31
75.2230000000	28
75.2530000000	44
75.2830000000	33
75.3130000000	30
75.3430000000	36
75.3730000000	37
75.4030000000	30
75.4330000000	22
75.4630000000	24
75.4930000000	34
75.5230000000	40
75.5530000000	32
75.5830000000	34
75.6130000000	41
75.6430000000	44
75.6730000000	33
75.7030000000	37
75.7330000000	39
75.7630000000	27
75.7930000000	26
75.8230000000	28
75.8530000000	35
75.8830000000	33
75.9130000000	36
75.9430000000	32
75.9730000000	37
76.0030000000	38
76.0330000000	41
76.0630000000	45
76.0930000000	35
76.1230000000	28
76.1530000000	40
76.1830000000	34
76.2130000000	39
76.2430000000	38
76.2730000000	30
76.3030000000	35
76.3330000000	42
76.3630000000	32
76.3930000000	35
76.4230000000	41
76.4530000000	30
76.4830000000	37
76.5130000000	32
76.5430000000	27
76.5730000000	41
76.6030000000	39
76.6330000000	41
76.6630000000	44
76.6930000000	43
76.7230000000	41
76.7530000000	42
76.7830000000	32
76.8130000000	39
76.8430000000	48
76.8730000000	27
76.9030000000	37
76.9330000000	31
76.9630000000	35
76.9930000000	36
77.0230000000	27
77.0530000000	47
77.0830000000	41
77.1130000000	38
77.1430000000	41
77.1730000000	48
77.2030000000	41
77.2330000000	33
77.2630000000	35
77.2930000000	28
77.3230000000	36
77.3530000000	34
77.3830000000	52
77.4130000000	32
77.4430000000	36
77.4730000000	33
77.5030000000	29
77.5330000000	43
77.5630000000	36
77.5930000000	43
77.6230000000	39
77.6530000000	36
77.6830000000	29
77.7130000000	40
77.7430000000	39
77.7730000000	32
77.8030000000	37
77.8330000000	43
77.8630000000	44
77.8930000000	36
77.9230000000	23
77.9530000000	37
77.9830000000	36
78.0130000000	34
78.0430000000	38
78.0730000000	30
78.1030000000	34
78.1330000000	39
78.1630000000	46
78.1930000000	31
78.2230000000	30
78.2530000000	26
78.2830000000	38
78.3130000000	37
78.3430000000	33
78.3730000000	27
78.4030000000	32
78.4330000000	41
78.4630000000	40
78.4930000000	34
78.5230000000	36
78.5530000000	33
78.5830000000	39
78.6130000000	39
78.6430000000	45
78.6730000000	42
78.7030000000	33
78.7330000000	34
78.7630000000	31
78.7930000000	36
78.8230000000	37
78.8530000000	29
78.8830000000	36
78.9130000000	32
78.9430000000	35
78.9730000000	39
79.0030000000	32
79.0330000000	34
79.0630000000	30
79.0930000000	39
79.1230000000	39
79.1530000000	32
79.1830000000	29
79.2130000000	43
79.2430000000	37
79.2730000000	31
79.3030000000	31
79.3330000000	30
79.3630000000	36
79.3930000000	21
79.4230000000	44
79.4530000000	32
79.4830000000	49
79.5130000000	33
79.5430000000	37
79.5730000000	44
79.6030000000	32
79.6330000000	43
79.6630000000	44
79.6930000000	40
79.7230000000	38
79.7530000000	48
79.7830000000	31
79.8130000000	32
79.8430000000	34
79.8730000000	31
79.9030000000	29
79.9330000000	32
79.9630000000	43
79.9930000000	39
80.0230000000	40
80.0530000000	40
80.0830000000	48
80.1130000000	40
80.1430000000	44
80.1730000000	30
80.2030000000	32
80.2330000000	29
80.2630000000	35
80.2930000000	40
80.3230000000	39
80.3530000000	40
80.3830000000	38
80.4130000000	35
80.4430000000	38
80.4730000000	25
80.5030000000	35
80.5330000000	35
80.5630000000	42
80.5930000000	40
80.6230000000	33
80.6530000000	32
80.6830000000	35
80.7130000000	33
80.7430000000	32
80.7730000000	30
80.8030000000	33
80.8330000000	32
80.8630000000	38
80.8930000000	34
80.9230000000	25
80.9530000000	39
80.9830000000	26
81.0130000000	40
81.0430000000	31
81.0730000000	36
81.1030000000	34
81.1330000000	26
81.1630000000	51
81.1930000000	37
81.2230000000	30
81.2530000000	41
81.2830000000	28
81.3130000000	37
81.3430000000	36
81.3730000000	31
81.4030000000	29
81.4330000000	32
81.4630000000	34
81.4930000000	34
81.5230000000	30
81.5530000000	40
81.5830000000	39
81.6130000000	43
81.6430000000	35
81.6730000000	42
81.7030000000	38
81.7330000000	35
81.7630000000	37
81.7930000000	36
81.8230000000	43
81.8530000000	28
81.8830000000	36
81.9130000000	30
81.9430000000	37
81.9730000000	27
82.0030000000	32
82.0330000000	23
82.0630000000	21
82.0930000000	43
82.1230000000	38
82.1530000000	38
82.1830000000	36
82.2130000000	35
82.2430000000	29
82.2730000000	38
82.3030000000	38
82.3330000000	37
82.3630000000	37
82.3930000000	32
82.4230000000	37
82.4530000000	45
82.4830000000	39
82.5130000000	29
82.5430000000	35
82.5730000000	37
82.6030000000	30
82.6330000000	36
82.6630000000	38
82.6930000000	38
82.7230000000	34
82.7530000000	31
82.7830000000	35
82.8130000000	36
82.8430000000	37
82.8730000000	33
82.9030000000	36
82.9330000000	31
82.9630000000	32
82.9930000000	36
83.0230000000	38
83.0530000000	37
83.0830000000	32
83.1130000000	21
83.1430000000	33
83.1730000000	36
83.2030000000	30
83.2330000000	34
83.2630000000	37
83.2930000000	35
83.3230000000	35
83.3530000000	28
83.3830000000	35
83.4130000000	35
83.4430000000	35
83.4730000000	31
83.5030000000	34
83.5330000000	37
83.5630000000	29
83.5930000000	35
83.6230000000	34
83.6530000000	37
83.6830000000	34
83.7130000000	25
83.7430000000	30
83.7730000000	29
83.8030000000	30
83.8330000000	36
83.8630000000	33
83.8930000000	31
83.9230000000	33
83.9530000000	28
83.9830000000	37
84.0130000000	28
84.0430000000	35
84.0730000000	43
84.1030000000	40
84.1330000000	33
84.1630000000	33
84.1930000000	46
84.2230000000	48
84.2530000000	35
84.2830000000	36
84.3130000000	39
84.3430000000	38
84.3730000000	30
84.4030000000	43
84.4330000000	29
84.4630000000	34
84.4930000000	29
84.5230000000	32
84.5530000000	30
84.5830000000	38
84.6130000000	45
84.6430000000	39
84.6730000000	34
84.7030000000	36
84.7330000000	31
84.7630000000	29
84.7930000000	38
84.8230000000	35
84.8530000000	30
84.8830000000	30
84.9130000000	26
84.9430000000	37
84.9730000000	23
85.0030000000	28
85.0330000000	31
85.0630000000	42
85.0930000000	34
85.1230000000	31
85.1530000000	40
85.1830000000	36
85.2130000000	36
85.2430000000	33
85.2730000000	31
85.3030000000	24
85.3330000000	33
85.3630000000	37
85.3930000000	41
85.4230000000	28
85.4530000000	31
85.4830000000	28
85.5130000000	35
85.5430000000	29
85.5730000000	36
85.6030000000	24
85.6330000000	32
85.6630000000	39
85.6930000000	36
85.7230000000	37
85.7530000000	29
85.7830000000	39
85.8130000000	26
85.8430000000	32
85.8730000000	32
85.9030000000	30
85.9330000000	35
85.9630000000	47
85.9930000000	27
86.0230000000	42
86.0530000000	43
86.0830000000	31
86.1130000000	30
86.1430000000	30
86.1730000000	33
86.2030000000	28
86.2330000000	30
86.2630000000	33
86.2930000000	31
86.3230000000	29
86.3530000000	42
86.3830000000	40
86.4130000000	36
86.4430000000	32
86.4730000000	34
86.5030000000	38
86.5330000000	40
86.5630000000	33
86.5930000000	41
86.6230000000	36
86.6530000000	38
86.6830000000	34
86.7130000000	34
86.7430000000	40
86.7730000000	29
86.8030000000	33
86.8330000000	30
86.8630000000	27
86.8930000000	30
86.9230000000	30
86.9530000000	44
86.9830000000	41
87.0130000000	37
87.0430000000	39
87.0730000000	40
87.1030000000	43
87.1330000000	41
87.1630000000	29
87.1930000000	24
87.2230000000	33
87.2530000000	29
87.2830000000	29
87.3130000000	41
87.3430000000	32
87.3730000000	39
87.4030000000	29
87.4330000000	29
87.4630000000	27
87.4930000000	38
87.5230000000	45
87.5530000000	33
87.5830000000	32
87.6130000000	32
87.6430000000	34
87.6730000000	38
87.7030000000	29
87.7330000000	32
87.7630000000	38
87.7930000000	46
87.8230000000	32
87.8530000000	37
87.8830000000	33
87.9130000000	33
87.9430000000	28
87.9730000000	32
88.0030000000	36
88.0330000000	26
88.0630000000	39
88.0930000000	37
88.1230000000	32
88.1530000000	35
88.1830000000	38
88.2130000000	35
88.2430000000	41
88.2730000000	30
88.3030000000	38
88.3330000000	29
88.3630000000	45
88.3930000000	35
88.4230000000	32
88.4530000000	45
88.4830000000	27
88.5130000000	41
88.5430000000	43
88.5730000000	40
88.6030000000	28
88.6330000000	30
88.6630000000	34
88.6930000000	34
88.7230000000	30
88.7530000000	34
88.7830000000	43
88.8130000000	31
88.8430000000	35
88.8730000000	29
88.9030000000	36
88.9330000000	35
88.9630000000	33
88.9930000000	37
89.0230000000	35
89.0530000000	36
89.0830000000	40
89.1130000000	29
89.1430000000	29
89.1730000000	31
89.2030000000	39
89.2330000000	30
89.2630000000	25
89.2930000000	31
89.3230000000	40
89.3530000000	42
89.3830000000	28
89.4130000000	31
89.4430000000	31
89.4730000000	34
89.5030000000	25
89.5330000000	30
89.5630000000	41
89.5930000000	48
89.6230000000	37
89.6530000000	40
89.6830000000	47
89.7130000000	40
89.7430000000	36
89.7730000000	33
89.8030000000	34
89.8330000000	35
89.8630000000	33
89.8930000000	42
89.9230000000	39
89.9530000000	28
89.9830000000	33
90.0130000000	28
90.0430000000	26
90.0730000000	26
90.1030000000	26
90.1330000000	36
90.1630000000	39
90.1930000000	42
90.2230000000	37
90.2530000000	40
90.2830000000	35
90.3130000000	37
90.3430000000	39
90.3730000000	30
90.4030000000	31
90.4330000000	45
90.4630000000	33
90.4930000000	40
90.5230000000	29
90.5530000000	47
90.5830000000	42
90.6130000000	35
90.6430000000	42
90.6730000000	45
90.7030000000	34
90.7330000000	37
90.7630000000	32
90.7930000000	36
90.8230000000	33
90.8530000000	38
90.8830000000	33
90.9130000000	36
90.9430000000	49
90.9730000000	29
91.0030000000	33
91.0330000000	30
91.0630000000	35
91.0930000000	37
91.1230000000	36
91.1530000000	31
91.1830000000	20
91.2130000000	32
91.2430000000	35
91.2730000000	37
91.3030000000	44
91.3330000000	32
91.3630000000	36
91.3930000000	33
91.4230000000	33
91.4530000000	36
91.4830000000	38
91.5130000000	35
91.5430000000	38
91.5730000000	35
91.6030000000	27
91.6330000000	34
91.6630000000	35
91.6930000000	30
91.7230000000	39
91.7530000000	32
91.7830000000	21
91.8130000000	35
91.8430000000	39
91.8730000000	38
91.9030000000	36
91.9330000000	46
91.9630000000	40
91.9930000000	45
92.0230000000	40
92.0530000000	44
92.0830000000	26
92.1130000000	32
92.1430000000	38
92.1730000000	34
92.2030000000	33
92.2330000000	35
92.2630000000	29
92.2930000000	39
92.3230000000	41
92.3530000000	28
92.3830000000	26
92.4130000000	34
92.4430000000	37
92.4730000000	36
92.5030000000	36
92.5330000000	34
92.5630000000	31
92.5930000000	26
92.6230000000	37
92.6530000000	33
92.6830000000	36
92.7130000000	33
92.7430000000	30
92.7730000000	50
92.8030000000	27
92.8330000000	40
92.8630000000	27
92.8930000000	22
92.9230000000	44
92.9530000000	37
92.9830000000	33
93.0130000000	32
93.0430000000	33
93.0730000000	31
93.1030000000	31
93.1330000000	27
93.1630000000	31
93.1930000000	35
93.2230000000	29
93.2530000000	32
93.2830000000	38
93.3130000000	30
93.3430000000	26
93.3730000000	27
93.4030000000	29
93.4330000000	37
93.4630000000	36
93.4930000000	28
93.5230000000	43
93.5530000000	36
93.5830000000	43
93.6130000000	34
93.6430000000	38
93.6730000000	31
93.7030000000	38
93.7330000000	31
93.7630000000	40
93.7930000000	33
93.8230000000	29
93.8530000000	34
93.8830000000	47
93.9130000000	38
93.9430000000	34
93.9730000000	40
94.0030000000	36
94.0330000000	30
94.0630000000	24
94.0930000000	35
94.1230000000	35
94.1530000000	27
94.1830000000	30
94.2130000000	28
94.2430000000	35
94.2730000000	36
94.3030000000	33
94.3330000000	36
94.3630000000	36
94.3930000000	37
94.4230000000	33
94.4530000000	39
94.4830000000	28
94.5130000000	28
94.5430000000	36
94.5730000000	36
94.6030000000	43
94.6330000000	40
94.6630000000	34
94.6930000000	39
94.7230000000	40
94.7530000000	40
94.7830000000	44
94.8130000000	32
94.8430000000	46
94.8730000000	34
94.9030000000	44
94.9330000000	49
94.9630000000	27
94.9930000000	28
95.0230000000	39
95.0530000000	24
95.0830000000	36
95.1130000000	30
95.1430000000	29
95.1730000000	29
95.2030000000	41
95.2330000000	34
95.2630000000	39
95.2930000000	33
95.3230000000	33
95.3530000000	35
95.3830000000	41
95.4130000000	40
95.4430000000	33
95.4730000000	36
95.5030000000	30
95.5330000000	39
95.5630000000	42
95.5930000000	43
95.6230000000	45
95.6530000000	37
95.6830000000	29
95.7130000000	40
95.7430000000	39
95.7730000000	36
95.8030000000	45
95.8330000000	40
95.8630000000	33
95.8930000000	26
95.9230000000	34
95.9530000000	43
95.9830000000	40
96.0130000000	38
96.0430000000	34
96.0730000000	33
96.1030000000	40
96.1330000000	41
96.1630000000	38
96.1930000000	28
96.2230000000	38
96.2530000000	42
96.2830000000	44
96.3130000000	36
96.3430000000	41
96.3730000000	41
96.4030000000	38
96.4330000000	36
96.4630000000	39
96.4930000000	33
96.5230000000	33
96.5530000000	37
96.5830000000	40
96.6130000000	37
96.6430000000	38
96.6730000000	39
96.7030000000	41
96.7330000000	37
96.7630000000	36
96.7930000000	29
96.8230000000	35
96.8530000000	35
96.8830000000	35
96.9130000000	40
96.9430000000	43
96.9730000000	37
97.0030000000	33
97.0330000000	30
97.0630000000	23
97.0930000000	35
97.1230000000	36
97.1530000000	29
97.1830000000	33
97.2130000000	36
97.2430000000	38
97.2730000000	44
97.3030000000	38
97.3330000000	33
97.3630000000	32
97.3930000000	35
97.4230000000	47
97.4530000000	47
97.4830000000	31
97.5130000000	44
97.5430000000	32
97.5730000000	33
97.6030000000	32
97.6330000000	38
97.6630000000	33
97.6930000000	34
97.7230000000	33
97.7530000000	36
97.7830000000	32
97.8130000000	34
97.8430000000	33
97.8730000000	24
97.9030000000	41
97.9330000000	37
97.9630000000	38
97.9930000000	51
98.0230000000	31
98.0530000000	32
98.0830000000	43
98.1130000000	41
98.1430000000	42
98.1730000000	32
98.2030000000	35
98.2330000000	42
98.2630000000	36
98.2930000000	37
98.3230000000	35
98.3530000000	38
98.3830000000	33
98.4130000000	41
98.4430000000	43
98.4730000000	36
98.5030000000	37
98.5330000000	41
98.5630000000	35
98.5930000000	24
98.6230000000	34
98.6530000000	45
98.6830000000	32
98.7130000000	29
98.7430000000	41
98.7730000000	38
98.8030000000	33
98.8330000000	31
98.8630000000	27
98.8930000000	42
98.9230000000	41
98.9530000000	27
98.9830000000	37
99.0130000000	34
99.0430000000	16
99.0730000000	30
99.1030000000	28
99.1330000000	34
99.1630000000	32
99.1930000000	27
99.2230000000	23
99.2530000000	39
99.2830000000	33
99.3130000000	34
99.3430000000	26
99.3730000000	35
99.4030000000	29
99.4330000000	31
99.4630000000	39
99.4930000000	35
99.5230000000	32
99.5530000000	40
99.5830000000	42
99.6130000000	43
99.6430000000	43
99.6730000000	47
99.7030000000	38
99.7330000000	37
99.7630000000	27
99.7930000000	26
99.8230000000	36
99.8530000000	46
99.8830000000	35
99.9130000000	21
99.9430000000	30
99.9730000000	37
100.0030000000	33
100.0330000000	31
100.0630000000	34
100.0930000000	34
100.1230000000	36
100.1530000000	34
100.1830000000	31
100.2130000000	37
100.2430000000	43
100.2730000000	36
100.3030000000	41
100.3330000000	42
100.3630000000	34
100.3930000000	30
100.4230000000	35
100.4530000000	31
100.4830000000	35
100.5130000000	44
100.5430000000	48
100.5730000000	39
100.6030000000	34
100.6330000000	49
100.6630000000	38
100.6930000000	20
100.7230000000	35
100.7530000000	35
100.7830000000	33
100.8130000000	32
100.8430000000	29
100.8730000000	30
100.9030000000	30
100.9330000000	31
100.9630000000	21
100.9930000000	37
101.0230000000	37
101.0530000000	37
101.0830000000	31
101.1130000000	38
101.1430000000	32
101.1730000000	28
101.2030000000	28
101.2330000000	32
101.2630000000	34
101.2930000000	32
101.3230000000	32
101.3530000000	35
101.3830000000	27
101.4130000000	38
101.4430000000	44
101.4730000000	47
101.5030000000	34
101.5330000000	36
101.5630000000	35
101.5930000000	31
101.6230000000	36
101.6530000000	33
101.6830000000	31
101.7130000000	37
101.7430000000	31
101.7730000000	39
101.8030000000	50
101.8330000000	42
101.8630000000	38
101.8930000000	31
101.9230000000	51
101.9530000000	32
101.9830000000	28
102.0130000000	39
102.0430000000	31
102.0730000000	38
102.1030000000	31
102.1330000000	30
102.1630000000	27
102.1930000000	23
102.2230000000	29
102.2530000000	35
102.2830000000	38
102.3130000000	34
102.3430000000	36
102.3730000000	34
102.4030000000	34
102.4330000000	33
102.4630000000	39
102.4930000000	32
102.5230000000	33
102.5530000000	31
102.5830000000	33
102.6130000000	31
102.6430000000	34
102.6730000000	37
102.7030000000	37
102.7330000000	34
102.7630000000	24
102.7930000000	36
102.8230000000	33
102.8530000000	42
102.8830000000	47
102.9130000000	34
102.9430000000	32
102.9730000000	38
103.0030000000	43
103.0330000000	32
103.0630000000	32
103.0930000000	32
103.1230000000	30
103.1530000000	39
103.1830000000	36
103.2130000000	31
103.2430000000	32
103.2730000000	32
103.3030000000	34
103.3330000000	36
103.3630000000	38
103.3930000000	34
103.4230000000	31
103.4530000000	37
103.4830000000	28
103.5130000000	27
103.5430000000	34
103.5730000000	32
103.6030000000	27
103.6330000000	26
103.6630000000	30
103.6930000000	27
103.7230000000	41
103.7530000000	36
103.7830000000	41
103.8130000000	38
103.8430000000	28
103.8730000000	36
103.9030000000	41
103.9330000000	44
103.9630000000	40
103.9930000000	41
104.0230000000	42
104.0530000000	35
104.0830000000	28
104.1130000000	34
104.1430000000	37
104.1730000000	28
104.2030000000	31
104.2330000000	36
104.2630000000	31
104.2930000000	45
104.3230000000	36
104.3530000000	34
104.3830000000	28
104.4130000000	41
104.4430000000	39
104.4730000000	30
104.5030000000	44
104.5330000000	31
104.5630000000	41
104.5930000000	32
104.6230000000	49
104.6530000000	41
104.6830000000	34
104.7130000000	33
104.7430000000	29
104.7730000000	41
104.8030000000	40
104.8330000000	37
104.8630000000	32
104.8930000000	27
104.9230000000	33
104.9530000000	35
104.9830000000	37
105.0130000000	27
105.0430000000	34
105.0730000000	35
105.1030000000	27
105.1330000000	34
105.1630000000	32
105.1930000000	28
105.2230000000	35
105.2530000000	36
105.2830000000	37
105.3130000000	31
105.3430000000	28
105.3730000000	41
105.4030000000	38
105.4330000000	32
105.4630000000	41
105.4930000000	33
105.5230000000	33
105.5530000000	28
105.5830000000	39
105.6130000000	28
105.6430000000	23
105.6730000000	27
105.7030000000	35
105.7330000000	36
105.7630000000	36
105.7930000000	42
105.8230000000	24
105.8530000000	36
105.8830000000	30
105.9130000000	30
105.9430000000	36
105.9730000000	38
106.0030000000	24
106.0330000000	30
106.0630000000	26
106.0930000000	34
106.1230000000	38
106.1530000000	33
106.1830000000	26
106.2130000000	34
106.2430000000	26
106.2730000000	33
106.3030000000	28
106.3330000000	32
106.3630000000	32
106.3930000000	27
106.4230000000	39
106.4530000000	30
106.4830000000	32
106.5130000000	30
106.5430000000	38
106.5730000000	43
106.6030000000	36
106.6330000000	45
106.6630000000	29
106.6930000000	30
106.7230000000	39
106.7530000000	29
106.7830000000	29
106.8130000000	32
106.8430000000	29
106.8730000000	31
106.9030000000	26
106.9330000000	20
106.9630000000	39
106.9930000000	32
107.0230000000	24
107.0530000000	28
107.0830000000	28
107.1130000000	27
107.1430000000	42
107.1730000000	36
107.2030000000	23
107.2330000000	32
107.2630000000	24
107.2930000000	34
107.3230000000	35
107.3530000000	40
107.3830000000	34
107.4130000000	28
107.4430000000	32
107.4730000000	29
107.5030000000	38
107.5330000000	33
107.5630000000	33
107.5930000000	33
107.6230000000	28
107.6530000000	34
107.6830000000	37
107.7130000000	32
107.7430000000	31
107.7730000000	31
107.8030000000	32
107.8330000000	32
107.8630000000	29
107.8930000000	33
107.9230000000	43
107.9530000000	40
107.9830000000	25
108.0130000000	35
108.0430000000	27
108.0730000000	34
108.1030000000	29
108.1330000000	36
108.1630000000	27
108.1930000000	27
108.2230000000	33
108.2530000000	27
108.2830000000	34
108.3130000000	27
108.3430000000	30
108.3730000000	31
108.4030000000	35
108.4330000000	27
108.4630000000	26
108.4930000000	35
108.5230000000	44
108.5530000000	32
108.5830000000	36
108.6130000000	41
108.6430000000	35
108.6730000000	33
108.7030000000	26
108.7330000000	22
108.7630000000	31
108.7930000000	29
108.8230000000	34
108.8530000000	37
108.8830000000	32
108.9130000000	31
108.9430000000	30
108.9730000000	35
109.0030000000	29
109.0330000000	30
109.0630000000	41
109.0930000000	31
109.1230000000	32
109.1530000000	26
109.1830000000	35
109.2130000000	32
109.2430000000	32
109.2730000000	37
109.3030000000	29
109.3330000000	40
109.3630000000	32
109.3930000000	40
109.4230000000	33
109.4530000000	25
109.4830000000	41
109.5130000000	35
109.5430000000	38
109.5730000000	25
109.6030000000	31
109.6330000000	38
109.6630000000	33
109.6930000000	26
109.7230000000	33
109.7530000000	35
109.7830000000	26
109.8130000000	39
109.8430000000	23
109.8730000000	39
109.9030000000	41
109.9330000000	38
109.9630000000	30
109.9930000000	25
110.0230000000	39
110.0530000000	35
110.0830000000	42
110.1130000000	37
110.1430000000	29
110.1730000000	32
110.2030000000	32
110.2330000000	40
110.2630000000	27
110.2930000000	30
110.3230000000	36
110.3530000000	45
110.3830000000	38
110.4130000000	25
110.4430000000	29
110.4730000000	40
110.5030000000	36
110.5330000000	30
110.5630000000	42
110.5930000000	35
110.6230000000	34
110.6530000000	45
110.6830000000	33
110.7130000000	32
110.7430000000	34
110.7730000000	28
110.8030000000	29
110.8330000000	37
110.8630000000	29
110.8930000000	30
110.9230000000	32
110.9530000000	32
110.9830000000	35
111.0130000000	38
111.0430000000	39
111.0730000000	28
111.1030000000	31
111.1330000000	37
111.1630000000	33
111.1930000000	30
111.2230000000	30
111.2530000000	36
111.2830000000	19
111.3130000000	42
111.3430000000	44
111.3730000000	40
111.4030000000	27
111.4330000000	36
111.4630000000	33
111.4930000000	45
111.5230000000	27
111.5530000000	35
111.5830000000	29
111.6130000000	37
111.6430000000	34
111.6730000000	36
111.7030000000	36
111.7330000000	34
111.7630000000	39
111.7930000000	36
111.8230000000	34
111.8530000000	37
111.8830000000	38
111.9130000000	33
111.9430000000	28
111.9730000000	25
112.0030000000	42
112.0330000000	38
112.0630000000	39
112.0930000000	32
112.1230000000	45
112.1530000000	30
112.1830000000	33
112.2130000000	28
112.2430000000	47
112.2730000000	31
112.3030000000	36
112.3330000000	38
112.3630000000	37
112.3930000000	41
112.4230000000	38
112.4530000000	37
112.4830000000	33
112.5130000000	31
112.5430000000	23
112.5730000000	30
112.6030000000	38
112.6330000000	34
112.6630000000	31
112.6930000000	40
112.7230000000	32
112.7530000000	28
112.7830000000	40
112.8130000000	38
112.8430000000	33
112.8730000000	32
112.9030000000	43
112.9330000000	29
112.9630000000	34
112.9930000000	36
113.0230000000	31
113.0530000000	45
113.0830000000	33
113.1130000000	34
113.1430000000	38
113.1730000000	29
113.2030000000	24
113.2330000000	28
113.2630000000	35
113.2930000000	32
113.3230000000	28
113.3530000000	29
113.3830000000	35
113.4130000000	39
113.4430000000	36
113.4730000000	30
113.5030000000	32
113.5330000000	27
113.5630000000	39
113.5930000000	29
113.6230000000	26
113.6530000000	49
113.6830000000	40
113.7130000000	39
113.7430000000	31
113.7730000000	45
113.8030000000	34
113.8330000000	34
113.8630000000	31
113.8930000000	27
113.9230000000	39
113.9530000000	39
113.9830000000	31
114.0130000000	38
114.0430000000	29
114.0730000000	42
114.1030000000	32
114.1330000000	27
114.1630000000	27
114.1930000000	33
114.2230000000	37
114.2530000000	35
114.2830000000	36
114.3130000000	38
114.3430000000	26
114.3730000000	28
114.4030000000	31
114.4330000000	36
114.4630000000	1
114.4930000000	1
114.5230000000	1
114.5530000000	1
114.5830000000	1
