0.3130000000	1
0.3430000000	1
0.3730000000	1
0.4030000000	1
0.4330000000	1
0.4630000000	2
0.4930000000	1
0.5230000000	1
0.5530000000	1
0.5830000000	1
0.6130000000	1
0.6430000000	2
0.6730000000	1
0.7030000000	1
0.7330000000	1
0.7630000000	1
0.7930000000	1
0.8230000000	1
0.8530000000	1
0.8830000000	1
0.9130000000	1
0.9430000000	1
0.9730000000	1
1.0030000000	2
1.0330000000	2
1.0630000000	1
1.0930000000	1
1.1230000000	1
1.1530000000	1
1.1830000000	1
1.2130000000	1
1.2430000000	1
1.2730000000	1
1.3030000000	2
1.3330000000	1
1.3630000000	1
1.3930000000	1
1.4230000000	1
1.4530000000	1
1.4830000000	1
1.5130000000	1
1.5430000000	1
1.5730000000	1
1.6030000000	2
1.6330000000	2
1.6630000000	2
1.6930000000	1
1.7230000000	1
1.7530000000	1
1.7830000000	1
1.8130000000	1
1.8430000000	1
1.8730000000	2
1.9030000000	1
1.9330000000	1
1.9630000000	2
1.9930000000	1
2.0230000000	1
2.0530000000	2
2.0830000000	1
2.1130000000	1
2.1430000000	1
2.1730000000	1
2.2030000000	1
2.2330000000	1
2.2630000000	2
2.2930000000	2
2.3230000000	1
2.3530000000	1
2.3830000000	1
2.4130000000	2
2.4430000000	1
2.4730000000	2
2.5030000000	2
2.5330000000	1
2.5630000000	1
2.5930000000	1
2.6230000000	1
2.6530000000	1
2.6830000000	2
2.7130000000	3
2.7430000000	1
2.7730000000	1
2.8030000000	3
2.8330000000	1
2.8630000000	4
2.8930000000	1
2.9230000000	2
2.9530000000	1
2.9830000000	3
3.0130000000	2
3.0430000000	2
3.0730000000	2
3.1030000000	2
3.1330000000	4
3.1630000000	2
3.1930000000	2
3.2230000000	1
3.2530000000	1
3.2830000000	1
3.3130000000	3
3.3430000000	4
3.3730000000	1
3.4030000000	2
3.4330000000	1
3.4630000000	1
3.4930000000	2
3.5230000000	1
3.5530000000	2
3.5830000000	2
3.6130000000	3
3.6430000000	1
3.6730000000	3
3.7030000000	4
3.7330000000	3
3.7630000000	2
3.7930000000	2
3.8230000000	4
3.8530000000	1
3.8830000000	1
3.9130000000	3
3.9430000000	1
3.9730000000	1
4.0030000000	3
4.0330000000	2
4.0630000000	2
4.0930000000	1
4.1230000000	3
4.1530000000	4
4.1830000000	3
4.2130000000	6
4.2430000000	3
4.2730000000	6
4.3030000000	5
4.3330000000	3
4.3630000000	5
4.3930000000	3
4.4230000000	8
4.4530000000	17
4.4830000000	15
4.5130000000	16
4.5430000000	43
4.5730000000	65
4.6030000000	86
4.6330000000	96
4.6630000000	102
4.6930000000	146
4.7230000000	130
4.7530000000	127
4.7830000000	153
4.8130000000	151
4.8430000000	130
4.8730000000	120
4.9030000000	147
4.9330000000	141
4.9630000000	135
4.9930000000	133
5.0230000000	145
5.0530000000	138
5.0830000000	136
5.1130000000	139
5.1430000000	137
5.1730000000	148
5.2030000000	143
5.2330000000	138
5.2630000000	155
5.2930000000	136
5.3230000000	147
5.3530000000	126
5.3830000000	133
5.4130000000	147
5.4430000000	129
5.4730000000	146
5.5030000000	138
5.5330000000	144
5.5630000000	163
5.5930000000	139
5.6230000000	153
5.6530000000	141
5.6830000000	159
5.7130000000	150
5.7430000000	165
5.7730000000	141
5.8030000000	164
5.8330000000	134
5.8630000000	154
5.8930000000	156
5.9230000000	137
5.9530000000	155
5.9830000000	112
6.0130000000	143
6.0430000000	144
6.0730000000	161
6.1030000000	141
6.1330000000	147
6.1630000000	157
6.1930000000	141
6.2230000000	143
6.2530000000	148
6.2830000000	141
6.3130000000	147
6.3430000000	136
6.3730000000	148
6.4030000000	143
6.4330000000	157
6.4630000000	150
6.4930000000	149
6.5230000000	134
6.5530000000	124
6.5830000000	140
6.6130000000	176
6.6430000000	149
6.6730000000	135
6.7030000000	150
6.7330000000	160
6.7630000000	165
6.7930000000	150
6.8230000000	135
6.8530000000	144
6.8830000000	144
6.9130000000	149
6.9430000000	144
6.9730000000	125
7.0030000000	145
7.0330000000	141
7.0630000000	155
7.0930000000	136
7.1230000000	133
7.1530000000	129
7.1830000000	130
7.2130000000	145
7.2430000000	139
7.2730000000	151
7.3030000000	144
7.3330000000	140
7.3630000000	151
7.3930000000	152
7.4230000000	128
7.4530000000	161
7.4830000000	154
7.5130000000	138
7.5430000000	154
7.5730000000	148
7.6030000000	154
7.6330000000	153
7.6630000000	140
7.6930000000	144
7.7230000000	159
7.7530000000	157
7.7830000000	145
7.8130000000	149
7.8430000000	153
7.8730000000	141
7.9030000000	136
7.9330000000	136
7.9630000000	146
7.9930000000	157
8.0230000000	143
8.0530000000	147
8.0830000000	133
8.1130000000	130
8.1430000000	126
8.1730000000	124
8.2030000000	130
8.2330000000	156
8.2630000000	135
8.2930000000	134
8.3230000000	141
8.3530000000	147
8.3830000000	123
8.4130000000	129
8.4430000000	129
8.4730000000	138
8.5030000000	145
8.5330000000	138
8.5630000000	157
8.5930000000	139
8.6230000000	141
8.6530000000	167
8.6830000000	146
8.7130000000	126
8.7430000000	146
8.7730000000	154
8.8030000000	130
8.8330000000	131
8.8630000000	152
8.8930000000	159
8.9230000000	146
8.9530000000	137
8.9830000000	158
9.0130000000	177
9.0430000000	147
9.0730000000	137
9.1030000000	129
9.1330000000	161
9.1630000000	123
9.1930000000	149
9.2230000000	167
9.2530000000	151
9.2830000000	133
9.3130000000	152
9.3430000000	151
9.3730000000	147
9.4030000000	145
9.4330000000	125
9.4630000000	131
9.4930000000	166
9.5230000000	139
9.5530000000	139
9.5830000000	148
9.6130000000	165
9.6430000000	146
9.6730000000	147
9.7030000000	134
9.7330000000	166
9.7630000000	127
9.7930000000	158
9.8230000000	144
9.8530000000	124
9.8830000000	142
9.9130000000	157
9.9430000000	145
9.9730000000	149
10.0030000000	132
10.0330000000	136
10.0630000000	144
10.0930000000	152
10.1230000000	160
10.1530000000	169
10.1830000000	156
10.2130000000	158
10.2430000000	162
10.2730000000	144
10.3030000000	134
10.3330000000	169
10.3630000000	148
10.3930000000	156
10.4230000000	158
10.4530000000	146
10.4830000000	147
10.5130000000	172
10.5430000000	142
10.5730000000	148
10.6030000000	152
10.6330000000	156
10.6630000000	161
10.6930000000	152
10.7230000000	161
10.7530000000	132
10.7830000000	164
10.8130000000	162
10.8430000000	175
10.8730000000	186
10.9030000000	169
10.9330000000	134
10.9630000000	141
10.9930000000	131
11.0230000000	165
11.0530000000	150
11.0830000000	137
11.1130000000	147
11.1430000000	150
11.1730000000	157
11.2030000000	143
11.2330000000	138
11.2630000000	153
11.2930000000	152
11.3230000000	124
11.3530000000	155
11.3830000000	146
11.4130000000	156
11.4430000000	132
11.4730000000	129
11.5030000000	124
11.5330000000	137
11.5630000000	147
11.5930000000	134
11.6230000000	131
11.6530000000	140
11.6830000000	139
11.7130000000	149
11.7430000000	112
11.7730000000	153
11.8030000000	159
11.8330000000	136
11.8630000000	131
11.8930000000	143
11.9230000000	151
11.9530000000	155
11.9830000000	112
12.0130000000	156
12.0430000000	166
12.0730000000	147
12.1030000000	139
12.1330000000	138
12.1630000000	155
12.1930000000	144
12.2230000000	155
12.2530000000	160
12.2830000000	148
12.3130000000	144
12.3430000000	143
12.3730000000	158
12.4030000000	150
12.4330000000	132
12.4630000000	134
12.4930000000	127
12.5230000000	152
12.5530000000	146
12.5830000000	135
12.6130000000	144
12.6430000000	152
12.6730000000	165
12.7030000000	151
12.7330000000	143
12.7630000000	167
12.7930000000	159
12.8230000000	145
12.8530000000	138
12.8830000000	138
12.9130000000	147
12.9430000000	156
12.9730000000	159
13.0030000000	158
13.0330000000	151
13.0630000000	144
13.0930000000	147
13.1230000000	150
13.1530000000	150
13.1830000000	127
13.2130000000	145
13.2430000000	132
13.2730000000	138
13.3030000000	154
13.3330000000	131
13.3630000000	147
13.3930000000	138
13.4230000000	127
13.4530000000	161
13.4830000000	167
13.5130000000	145
13.5430000000	140
13.5730000000	144
13.6030000000	148
13.6330000000	141
13.6630000000	159
13.6930000000	139
13.7230000000	144
13.7530000000	154
13.7830000000	148
13.8130000000	133
13.8430000000	138
13.8730000000	124
13.9030000000	135
13.9330000000	147
13.9630000000	139
13.9930000000	148
14.0230000000	149
14.0530000000	130
14.0830000000	134
14.1130000000	136
14.1430000000	150
14.1730000000	143
14.2030000000	160
14.2330000000	146
14.2630000000	165
14.2930000000	154
14.3230000000	131
14.3530000000	140
14.3830000000	129
14.4130000000	131
14.4430000000	123
14.4730000000	146
14.5030000000	162
14.5330000000	142
14.5630000000	136
14.5930000000	157
14.6230000000	147
14.6530000000	173
14.6830000000	117
14.7130000000	146
14.7430000000	146
14.7730000000	129
14.8030000000	143
14.8330000000	159
14.8630000000	152
14.8930000000	154
14.9230000000	134
14.9530000000	126
14.9830000000	167
15.0130000000	169
15.0430000000	154
15.0730000000	157
15.1030000000	165
15.1330000000	146
15.1630000000	127
15.1930000000	151
15.2230000000	176
15.2530000000	146
15.2830000000	155
15.3130000000	169
15.3430000000	141
15.3730000000	183
15.4030000000	145
15.4330000000	158
15.4630000000	172
15.4930000000	160
15.5230000000	162
15.5530000000	151
15.5830000000	164
15.6130000000	140
15.6430000000	135
15.6730000000	172
15.7030000000	173
15.7330000000	123
15.7630000000	123
15.7930000000	139
15.8230000000	148
15.8530000000	152
15.8830000000	135
15.9130000000	143
15.9430000000	155
15.9730000000	151
16.0030000000	145
16.0330000000	137
16.0630000000	149
16.0930000000	154
16.1230000000	157
16.1530000000	137
16.1830000000	131
16.2130000000	141
16.2430000000	145
16.2730000000	134
16.3030000000	117
16.3330000000	153
16.3630000000	134
16.3930000000	154
16.4230000000	153
16.4530000000	151
16.4830000000	145
16.5130000000	154
16.5430000000	143
16.5730000000	140
16.6030000000	129
16.6330000000	157
16.6630000000	134
16.6930000000	140
16.7230000000	153
16.7530000000	151
16.7830000000	133
16.8130000000	132
16.8430000000	142
16.8730000000	142
16.9030000000	129
16.9330000000	144
16.9630000000	153
16.9930000000	143
17.0230000000	138
17.0530000000	147
17.0830000000	130
17.1130000000	127
17.1430000000	120
17.1730000000	145
17.2030000000	162
17.2330000000	137
17.2630000000	132
17.2930000000	147
17.3230000000	145
17.3530000000	123
17.3830000000	142
17.4130000000	155
17.4430000000	149
17.4730000000	143
17.5030000000	145
17.5330000000	153
17.5630000000	141
17.5930000000	157
17.6230000000	164
17.6530000000	142
17.6830000000	143
17.7130000000	126
17.7430000000	135
17.7730000000	151
17.8030000000	152
17.8330000000	159
17.8630000000	143
17.8930000000	138
17.9230000000	147
17.9530000000	146
17.9830000000	134
18.0130000000	129
18.0430000000	128
18.0730000000	124
18.1030000000	153
18.1330000000	131
18.1630000000	174
18.1930000000	153
18.2230000000	124
18.2530000000	128
18.2830000000	149
18.3130000000	140
18.3430000000	154
18.3730000000	143
18.4030000000	145
18.4330000000	152
18.4630000000	134
18.4930000000	145
18.5230000000	147
18.5530000000	154
18.5830000000	133
18.6130000000	148
18.6430000000	142
18.6730000000	140
18.7030000000	147
18.7330000000	131
18.7630000000	135
18.7930000000	138
18.8230000000	133
18.8530000000	134
18.8830000000	147
18.9130000000	146
18.9430000000	149
18.9730000000	138
19.0030000000	140
19.0330000000	142
19.0630000000	138
19.0930000000	143
19.1230000000	144
19.1530000000	144
19.1830000000	155
19.2130000000	146
19.2430000000	145
19.2730000000	152
19.3030000000	144
19.3330000000	133
19.3630000000	170
19.3930000000	140
19.4230000000	154
19.4530000000	151
19.4830000000	158
19.5130000000	155
19.5430000000	143
19.5730000000	149
19.6030000000	143
19.6330000000	151
19.6630000000	164
19.6930000000	150
19.7230000000	132
19.7530000000	155
19.7830000000	166
19.8130000000	153
19.8430000000	146
19.8730000000	138
19.9030000000	134
19.9330000000	142
19.9630000000	154
19.9930000000	134
20.0230000000	148
20.0530000000	122
20.0830000000	124
20.1130000000	175
20.1430000000	151
20.1730000000	147
20.2030000000	169
20.2330000000	150
20.2630000000	136
20.2930000000	128
20.3230000000	154
20.3530000000	167
20.3830000000	145
20.4130000000	163
20.4430000000	176
20.4730000000	145
20.5030000000	155
20.5330000000	147
20.5630000000	159
20.5930000000	182
20.6230000000	195
20.6530000000	221
20.6830000000	216
20.7130000000	286
20.7430000000	365
20.7730000000	469
20.8030000000	657
20.8330000000	798
20.8630000000	964
20.8930000000	874
20.9230000000	671
20.9530000000	536
20.9830000000	361
21.0130000000	272
21.0430000000	208
21.0730000000	194
21.1030000000	174
21.1330000000	162
21.1630000000	196
21.1930000000	154
21.2230000000	164
21.2530000000	148
21.2830000000	131
21.3130000000	148
21.3430000000	141
21.3730000000	162
21.4030000000	153
21.4330000000	154
21.4630000000	159
21.4930000000	166
21.5230000000	160
21.5530000000	137
21.5830000000	139
21.6130000000	140
21.6430000000	149
21.6730000000	164
21.7030000000	167
21.7330000000	155
21.7630000000	148
21.7930000000	136
21.8230000000	176
21.8530000000	162
21.8830000000	162
21.9130000000	160
21.9430000000	159
21.9730000000	160
22.0030000000	176
22.0330000000	152
22.0630000000	167
22.0930000000	154
22.1230000000	157
22.1530000000	156
22.1830000000	147
22.2130000000	146
22.2430000000	147
22.2730000000	153
22.3030000000	162
22.3330000000	167
22.3630000000	177
22.3930000000	148
22.4230000000	140
22.4530000000	164
22.4830000000	162
22.5130000000	154
22.5430000000	155
22.5730000000	158
22.6030000000	164
22.6330000000	151
22.6630000000	147
22.6930000000	170
22.7230000000	169
22.7530000000	169
22.7830000000	164
22.8130000000	170
22.8430000000	145
22.8730000000	152
22.9030000000	162
22.9330000000	154
22.9630000000	174
22.9930000000	171
23.0230000000	176
23.0530000000	174
23.0830000000	191
23.1130000000	178
23.1430000000	154
23.1730000000	176
23.2030000000	179
23.2330000000	172
23.2630000000	193
23.2930000000	187
23.3230000000	175
23.3530000000	155
23.3830000000	154
23.4130000000	164
23.4430000000	150
23.4730000000	168
23.5030000000	201
23.5330000000	169
23.5630000000	184
23.5930000000	162
23.6230000000	156
23.6530000000	160
23.6830000000	162
23.7130000000	174
23.7430000000	160
23.7730000000	151
23.8030000000	178
23.8330000000	162
23.8630000000	144
23.8930000000	185
23.9230000000	174
23.9530000000	161
23.9830000000	166
24.0130000000	151
24.0430000000	156
24.0730000000	161
24.1030000000	172
24.1330000000	146
24.1630000000	164
24.1930000000	179
24.2230000000	170
24.2530000000	166
24.2830000000	157
24.3130000000	158
24.3430000000	161
24.3730000000	149
24.4030000000	186
24.4330000000	168
24.4630000000	153
24.4930000000	190
24.5230000000	168
24.5530000000	177
24.5830000000	151
24.6130000000	175
24.6430000000	168
24.6730000000	175
24.7030000000	162
24.7330000000	171
24.7630000000	168
24.7930000000	173
24.8230000000	147
24.8530000000	163
24.8830000000	170
24.9130000000	178
24.9430000000	163
24.9730000000	158
25.0030000000	171
25.0330000000	168
25.0630000000	169
25.0930000000	166
25.1230000000	169
25.1530000000	159
25.1830000000	171
25.2130000000	167
25.2430000000	154
25.2730000000	170
25.3030000000	177
25.3330000000	161
25.3630000000	164
25.3930000000	176
25.4230000000	142
25.4530000000	174
25.4830000000	172
25.5130000000	158
25.5430000000	171
25.5730000000	175
25.6030000000	173
25.6330000000	152
25.6630000000	176
25.6930000000	185
25.7230000000	170
25.7530000000	189
25.7830000000	205
25.8130000000	209
25.8430000000	228
25.8730000000	293
25.9030000000	358
25.9330000000	470
25.9630000000	688
25.9930000000	919
26.0230000000	1229
26.0530000000	1468
26.0830000000	1447
26.1130000000	1184
26.1430000000	867
26.1730000000	606
26.2030000000	433
26.2330000000	327
26.2630000000	235
26.2930000000	199
26.3230000000	203
26.3530000000	214
26.3830000000	176
26.4130000000	157
26.4430000000	153
26.4730000000	146
26.5030000000	167
26.5330000000	168
26.5630000000	164
26.5930000000	141
26.6230000000	146
26.6530000000	155
26.6830000000	153
26.7130000000	158
26.7430000000	163
26.7730000000	160
26.8030000000	157
26.8330000000	135
26.8630000000	138
26.8930000000	141
26.9230000000	150
26.9530000000	163
26.9830000000	157
27.0130000000	139
27.0430000000	122
27.0730000000	143
27.1030000000	163
27.1330000000	144
27.1630000000	116
27.1930000000	117
27.2230000000	152
27.2530000000	146
27.2830000000	112
27.3130000000	129
27.3430000000	128
27.3730000000	129
27.4030000000	140
27.4330000000	137
27.4630000000	149
27.4930000000	159
27.5230000000	142
27.5530000000	142
27.5830000000	133
27.6130000000	147
27.6430000000	149
27.6730000000	145
27.7030000000	142
27.7330000000	128
27.7630000000	137
27.7930000000	148
27.8230000000	136
27.8530000000	150
27.8830000000	140
27.9130000000	136
27.9430000000	135
27.9730000000	130
28.0030000000	152
28.0330000000	156
28.0630000000	149
28.0930000000	158
28.1230000000	164
28.1530000000	183
28.1830000000	191
28.2130000000	208
28.2430000000	174
28.2730000000	182
28.3030000000	197
28.3330000000	164
28.3630000000	152
28.3930000000	170
28.4230000000	163
28.4530000000	129
28.4830000000	129
28.5130000000	136
28.5430000000	132
28.5730000000	138
28.6030000000	142
28.6330000000	140
28.6630000000	135
28.6930000000	155
28.7230000000	126
28.7530000000	124
28.7830000000	131
28.8130000000	117
28.8430000000	142
28.8730000000	126
28.9030000000	112
28.9330000000	123
28.9630000000	153
28.9930000000	132
29.0230000000	143
29.0530000000	102
29.0830000000	137
29.1130000000	145
29.1430000000	119
29.1730000000	105
29.2030000000	133
29.2330000000	123
29.2630000000	139
29.2930000000	140
29.3230000000	146
29.3530000000	115
29.3830000000	131
29.4130000000	131
29.4430000000	118
29.4730000000	131
29.5030000000	119
29.5330000000	106
29.5630000000	121
29.5930000000	124
29.6230000000	118
29.6530000000	101
29.6830000000	123
29.7130000000	116
29.7430000000	91
29.7730000000	125
29.8030000000	147
29.8330000000	123
29.8630000000	113
29.8930000000	112
29.9230000000	120
29.9530000000	102
29.9830000000	106
30.0130000000	116
30.0430000000	121
30.0730000000	118
30.1030000000	126
30.1330000000	123
30.1630000000	107
30.1930000000	139
30.2230000000	136
30.2530000000	119
30.2830000000	121
30.3130000000	103
30.3430000000	115
30.3730000000	135
30.4030000000	114
30.4330000000	131
30.4630000000	110
30.4930000000	133
30.5230000000	125
30.5530000000	116
30.5830000000	113
30.6130000000	104
30.6430000000	113
30.6730000000	129
30.7030000000	103
30.7330000000	97
30.7630000000	119
30.7930000000	107
30.8230000000	115
30.8530000000	112
30.8830000000	95
30.9130000000	113
30.9430000000	118
30.9730000000	117
31.0030000000	98
31.0330000000	113
31.0630000000	109
31.0930000000	119
31.1230000000	127
31.1530000000	113
31.1830000000	108
31.2130000000	106
31.2430000000	123
31.2730000000	108
31.3030000000	132
31.3330000000	120
31.3630000000	109
31.3930000000	115
31.4230000000	93
31.4530000000	116
31.4830000000	105
31.5130000000	125
31.5430000000	103
31.5730000000	104
31.6030000000	93
31.6330000000	118
31.6630000000	109
31.6930000000	108
31.7230000000	115
31.7530000000	116
31.7830000000	103
31.8130000000	98
31.8430000000	108
31.8730000000	116
31.9030000000	92
31.9330000000	84
31.9630000000	112
31.9930000000	97
32.0230000000	107
32.0530000000	106
32.0830000000	88
32.1130000000	110
32.1430000000	112
32.1730000000	86
32.2030000000	112
32.2330000000	103
32.2630000000	106
32.2930000000	110
32.3230000000	100
32.3530000000	102
32.3830000000	107
32.4130000000	97
32.4430000000	98
32.4730000000	97
32.5030000000	84
32.5330000000	109
32.5630000000	116
32.5930000000	113
32.6230000000	99
32.6530000000	100
32.6830000000	114
32.7130000000	115
32.7430000000	97
32.7730000000	103
32.8030000000	104
32.8330000000	101
32.8630000000	125
32.8930000000	108
32.9230000000	94
32.9530000000	105
32.9830000000	90
33.0130000000	97
33.0430000000	92
33.0730000000	89
33.1030000000	108
33.1330000000	118
33.1630000000	112
33.1930000000	114
33.2230000000	112
33.2530000000	124
33.2830000000	121
33.3130000000	121
33.3430000000	149
33.3730000000	163
33.4030000000	239
33.4330000000	290
33.4630000000	433
33.4930000000	644
33.5230000000	958
33.5530000000	1534
33.5830000000	2112
33.6130000000	2544
33.6430000000	2634
33.6730000000	2335
33.7030000000	1845
33.7330000000	1255
33.7630000000	824
33.7930000000	533
33.8230000000	330
33.8530000000	263
33.8830000000	183
33.9130000000	170
33.9430000000	141
33.9730000000	115
34.0030000000	119
34.0330000000	110
34.0630000000	112
34.0930000000	118
34.1230000000	117
34.1530000000	105
34.1830000000	96
34.2130000000	99
34.2430000000	92
34.2730000000	107
34.3030000000	106
34.3330000000	111
34.3630000000	100
34.3930000000	95
34.4230000000	115
34.4530000000	113
34.4830000000	105
34.5130000000	93
34.5430000000	103
34.5730000000	97
34.6030000000	90
34.6330000000	94
34.6630000000	77
34.6930000000	89
34.7230000000	100
34.7530000000	95
34.7830000000	95
34.8130000000	95
34.8430000000	87
34.8730000000	98
34.9030000000	117
34.9330000000	102
34.9630000000	87
34.9930000000	79
35.0230000000	86
35.0530000000	94
35.0830000000	92
35.1130000000	86
35.1430000000	90
35.1730000000	76
35.2030000000	86
35.2330000000	98
35.2630000000	91
35.2930000000	99
35.3230000000	98
35.3530000000	90
35.3830000000	103
35.4130000000	92
35.4430000000	75
35.4730000000	102
35.5030000000	97
35.5330000000	75
35.5630000000	89
35.5930000000	110
35.6230000000	100
35.6530000000	88
35.6830000000	103
35.7130000000	90
35.7430000000	81
35.7730000000	97
35.8030000000	92
35.8330000000	85
35.8630000000	107
35.8930000000	105
35.9230000000	105
35.9530000000	106
35.9830000000	138
36.0130000000	149
36.0430000000	161
36.0730000000	211
36.1030000000	257
36.1330000000	306
36.1630000000	326
36.1930000000	289
36.2230000000	221
36.2530000000	206
36.2830000000	168
36.3130000000	128
36.3430000000	107
36.3730000000	96
36.4030000000	104
36.4330000000	102
36.4630000000	88
36.4930000000	82
36.5230000000	92
36.5530000000	99
36.5830000000	88
36.6130000000	95
36.6430000000	104
36.6730000000	91
36.7030000000	91
36.7330000000	66
36.7630000000	85
36.7930000000	96
36.8230000000	121
36.8530000000	100
36.8830000000	81
36.9130000000	86
36.9430000000	93
36.9730000000	73
37.0030000000	88
37.0330000000	81
37.0630000000	85
37.0930000000	108
37.1230000000	93
37.1530000000	98
37.1830000000	117
37.2130000000	109
37.2430000000	94
37.2730000000	90
37.3030000000	87
37.3330000000	101
37.3630000000	104
37.3930000000	82
37.4230000000	92
37.4530000000	105
37.4830000000	82
37.5130000000	94
37.5430000000	95
37.5730000000	98
37.6030000000	90
37.6330000000	101
37.6630000000	107
37.6930000000	97
37.7230000000	96
37.7530000000	109
37.7830000000	109
37.8130000000	95
37.8430000000	110
37.8730000000	128
37.9030000000	136
37.9330000000	131
37.9630000000	185
37.9930000000	273
38.0230000000	385
38.0530000000	601
38.0830000000	870
38.1130000000	1343
38.1430000000	1883
38.1730000000	2483
38.2030000000	2969
38.2330000000	2958
38.2630000000	2517
38.2930000000	1938
38.3230000000	1377
38.3530000000	909
38.3830000000	579
38.4130000000	366
38.4430000000	237
38.4730000000	195
38.5030000000	155
38.5330000000	137
38.5630000000	131
38.5930000000	112
38.6230000000	101
38.6530000000	93
38.6830000000	99
38.7130000000	98
38.7430000000	101
38.7730000000	97
38.8030000000	91
38.8330000000	89
38.8630000000	93
38.8930000000	99
38.9230000000	109
38.9530000000	105
38.9830000000	84
39.0130000000	85
39.0430000000	84
39.0730000000	81
39.1030000000	67
39.1330000000	81
39.1630000000	91
39.1930000000	74
39.2230000000	73
39.2530000000	77
39.2830000000	91
39.3130000000	99
39.3430000000	94
39.3730000000	76
39.4030000000	74
39.4330000000	82
39.4630000000	79
39.4930000000	81
39.5230000000	92
39.5530000000	94
39.5830000000	93
39.6130000000	74
39.6430000000	86
39.6730000000	75
39.7030000000	78
39.7330000000	85
39.7630000000	77
39.7930000000	94
39.8230000000	76
39.8530000000	80
39.8830000000	82
39.9130000000	80
39.9430000000	82
39.9730000000	71
40.0030000000	72
40.0330000000	74
40.0630000000	84
40.0930000000	90
40.1230000000	84
40.1530000000	78
40.1830000000	79
40.2130000000	83
40.2430000000	75
40.2730000000	76
40.3030000000	58
40.3330000000	83
40.3630000000	62
40.3930000000	71
40.4230000000	71
40.4530000000	70
40.4830000000	72
40.5130000000	87
40.5430000000	71
40.5730000000	78
40.6030000000	92
40.6330000000	71
40.6630000000	90
40.6930000000	77
40.7230000000	85
40.7530000000	74
40.7830000000	75
40.8130000000	72
40.8430000000	77
40.8730000000	72
40.9030000000	87
40.9330000000	81
40.9630000000	64
40.9930000000	84
41.0230000000	80
41.0530000000	81
41.0830000000	79
41.1130000000	79
41.1430000000	78
41.1730000000	78
41.2030000000	94
41.2330000000	75
41.2630000000	73
41.2930000000	83
41.3230000000	82
41.3530000000	72
41.3830000000	78
41.4130000000	80
41.4430000000	87
41.4730000000	67
41.5030000000	78
41.5330000000	67
41.5630000000	58
41.5930000000	63
41.6230000000	75
41.6530000000	84
41.6830000000	86
41.7130000000	86
41.7430000000	74
41.7730000000	78
41.8030000000	88
41.8330000000	86
41.8630000000	95
41.8930000000	93
41.9230000000	104
41.9530000000	138
41.9830000000	140
42.0130000000	190
42.0430000000	268
42.0730000000	377
42.1030000000	445
42.1330000000	388
42.1630000000	309
42.1930000000	266
42.2230000000	221
42.2530000000	197
42.2830000000	154
42.3130000000	103
42.3430000000	94
42.3730000000	101
42.4030000000	100
42.4330000000	87
42.4630000000	84
42.4930000000	96
42.5230000000	98
42.5530000000	84
42.5830000000	87
42.6130000000	87
42.6430000000	79
42.6730000000	67
42.7030000000	59
42.7330000000	79
42.7630000000	73
42.7930000000	63
42.8230000000	85
42.8530000000	63
42.8830000000	69
42.9130000000	71
42.9430000000	64
42.9730000000	65
43.0030000000	73
43.0330000000	71
43.0630000000	62
43.0930000000	77
43.1230000000	66
43.1530000000	67
43.1830000000	98
43.2130000000	78
43.2430000000	71
43.2730000000	70
43.3030000000	65
43.3330000000	64
43.3630000000	68
43.3930000000	71
43.4230000000	69
43.4530000000	71
43.4830000000	78
43.5130000000	59
43.5430000000	80
43.5730000000	60
43.6030000000	67
43.6330000000	66
43.6630000000	65
43.6930000000	88
43.7230000000	74
43.7530000000	90
43.7830000000	110
43.8130000000	146
43.8430000000	163
43.8730000000	212
43.9030000000	260
43.9330000000	237
43.9630000000	233
43.9930000000	207
44.0230000000	172
44.0530000000	153
44.0830000000	129
44.1130000000	108
44.1430000000	80
44.1730000000	75
44.2030000000	78
44.2330000000	76
44.2630000000	75
44.2930000000	71
44.3230000000	66
44.3530000000	63
44.3830000000	66
44.4130000000	58
44.4430000000	76
44.4730000000	58
44.5030000000	67
44.5330000000	75
44.5630000000	65
44.5930000000	60
44.6230000000	69
44.6530000000	70
44.6830000000	58
44.7130000000	53
44.7430000000	67
44.7730000000	70
44.8030000000	72
44.8330000000	61
44.8630000000	74
44.8930000000	56
44.9230000000	74
44.9530000000	63
44.9830000000	64
45.0130000000	72
45.0430000000	71
45.0730000000	67
45.1030000000	61
45.1330000000	61
45.1630000000	67
45.1930000000	69
45.2230000000	67
45.2530000000	74
45.2830000000	67
45.3130000000	73
45.3430000000	64
45.3730000000	61
45.4030000000	59
45.4330000000	61
45.4630000000	64
45.4930000000	67
45.5230000000	79
45.5530000000	64
45.5830000000	58
45.6130000000	69
45.6430000000	62
45.6730000000	58
45.7030000000	60
45.7330000000	62
45.7630000000	70
45.7930000000	73
45.8230000000	75
45.8530000000	71
45.8830000000	66
45.9130000000	66
45.9430000000	68
45.9730000000	51
46.0030000000	46
46.0330000000	53
46.0630000000	67
46.0930000000	66
46.1230000000	75
46.1530000000	74
46.1830000000	75
46.2130000000	69
46.2430000000	75
46.2730000000	100
46.3030000000	109
46.3330000000	169
46.3630000000	193
46.3930000000	272
46.4230000000	430
46.4530000000	644
46.4830000000	776
46.5130000000	962
46.5430000000	963
46.5730000000	861
46.6030000000	814
46.6330000000	679
46.6630000000	521
46.6930000000	482
46.7230000000	419
46.7530000000	457
46.7830000000	578
46.8130000000	695
46.8430000000	703
46.8730000000	710
46.9030000000	582
46.9330000000	520
46.9630000000	414
46.9930000000	269
47.0230000000	198
47.0530000000	150
47.0830000000	122
47.1130000000	93
47.1430000000	86
47.1730000000	59
47.2030000000	78
47.2330000000	80
47.2630000000	73
47.2930000000	60
47.3230000000	77
47.3530000000	65
47.3830000000	64
47.4130000000	90
47.4430000000	69
47.4730000000	65
47.5030000000	61
47.5330000000	65
47.5630000000	54
47.5930000000	67
47.6230000000	63
47.6530000000	68
47.6830000000	65
47.7130000000	52
47.7430000000	67
47.7730000000	59
47.8030000000	53
47.8330000000	59
47.8630000000	48
47.8930000000	54
47.9230000000	63
47.9530000000	60
47.9830000000	53
48.0130000000	52
48.0430000000	67
48.0730000000	51
48.1030000000	64
48.1330000000	65
48.1630000000	65
48.1930000000	55
48.2230000000	51
48.2530000000	67
48.2830000000	58
48.3130000000	48
48.3430000000	56
48.3730000000	54
48.4030000000	49
48.4330000000	46
48.4630000000	44
48.4930000000	50
48.5230000000	53
48.5530000000	53
48.5830000000	64
48.6130000000	63
48.6430000000	61
48.6730000000	56
48.7030000000	56
48.7330000000	56
48.7630000000	49
48.7930000000	44
48.8230000000	59
48.8530000000	60
48.8830000000	52
48.9130000000	46
48.9430000000	49
48.9730000000	55
49.0030000000	54
49.0330000000	53
49.0630000000	53
49.0930000000	55
49.1230000000	63
49.1530000000	59
49.1830000000	55
49.2130000000	52
49.2430000000	51
49.2730000000	48
49.3030000000	66
49.3330000000	50
49.3630000000	57
49.3930000000	68
49.4230000000	44
49.4530000000	55
49.4830000000	55
49.5130000000	55
49.5430000000	57
49.5730000000	44
49.6030000000	43
49.6330000000	47
49.6630000000	53
49.6930000000	43
49.7230000000	62
49.7530000000	42
49.7830000000	43
49.8130000000	56
49.8430000000	42
49.8730000000	66
49.9030000000	67
49.9330000000	49
49.9630000000	44
49.9930000000	62
50.0230000000	67
50.0530000000	65
50.0830000000	51
50.1130000000	59
50.1430000000	52
50.1730000000	50
50.2030000000	44
50.2330000000	64
50.2630000000	48
50.2930000000	51
50.3230000000	44
50.3530000000	55
50.3830000000	62
50.4130000000	72
50.4430000000	78
50.4730000000	86
50.5030000000	107
50.5330000000	110
50.5630000000	90
50.5930000000	86
50.6230000000	95
50.6530000000	80
50.6830000000	72
50.7130000000	65
50.7430000000	49
50.7730000000	54
50.8030000000	46
50.8330000000	48
50.8630000000	53
50.8930000000	38
50.9230000000	45
50.9530000000	50
50.9830000000	50
51.0130000000	53
51.0430000000	50
51.0730000000	42
51.1030000000	41
51.1330000000	49
51.1630000000	50
51.1930000000	62
51.2230000000	58
51.2530000000	44
51.2830000000	50
51.3130000000	51
51.3430000000	57
51.3730000000	48
51.4030000000	56
51.4330000000	50
51.4630000000	44
51.4930000000	53
51.5230000000	53
51.5530000000	44
51.5830000000	44
51.6130000000	44
51.6430000000	48
51.6730000000	46
51.7030000000	51
51.7330000000	43
51.7630000000	50
51.7930000000	55
51.8230000000	49
51.8530000000	48
51.8830000000	55
51.9130000000	42
51.9430000000	59
51.9730000000	59
52.0030000000	47
52.0330000000	45
52.0630000000	54
52.0930000000	51
52.1230000000	45
52.1530000000	45
52.1830000000	41
52.2130000000	51
52.2430000000	53
52.2730000000	50
52.3030000000	55
52.3330000000	42
52.3630000000	44
52.3930000000	53
52.4230000000	56
52.4530000000	43
52.4830000000	45
52.5130000000	50
52.5430000000	37
52.5730000000	41
52.6030000000	32
52.6330000000	55
52.6630000000	45
52.6930000000	46
52.7230000000	45
52.7530000000	52
52.7830000000	43
52.8130000000	48
52.8430000000	42
52.8730000000	56
52.9030000000	57
52.9330000000	45
52.9630000000	57
52.9930000000	48
53.0230000000	45
53.0530000000	43
53.0830000000	57
53.1130000000	44
53.1430000000	53
53.1730000000	56
53.2030000000	50
53.2330000000	64
53.2630000000	48
53.2930000000	38
53.3230000000	59
53.3530000000	53
53.3830000000	50
53.4130000000	59
53.4430000000	62
53.4730000000	60
53.5030000000	63
53.5330000000	67
53.5630000000	93
53.5930000000	101
53.6230000000	104
53.6530000000	110
53.6830000000	103
53.7130000000	84
53.7430000000	90
53.7730000000	72
53.8030000000	62
53.8330000000	63
53.8630000000	53
53.8930000000	48
53.9230000000	52
53.9530000000	49
53.9830000000	57
54.0130000000	54
54.0430000000	45
54.0730000000	36
54.1030000000	39
54.1330000000	51
54.1630000000	59
54.1930000000	50
54.2230000000	33
54.2530000000	42
54.2830000000	42
54.3130000000	57
54.3430000000	33
54.3730000000	45
54.4030000000	40
54.4330000000	54
54.4630000000	52
54.4930000000	46
54.5230000000	46
54.5530000000	48
54.5830000000	42
54.6130000000	49
54.6430000000	48
54.6730000000	33
54.7030000000	45
54.7330000000	44
54.7630000000	44
54.7930000000	48
54.8230000000	46
54.8530000000	39
54.8830000000	27
54.9130000000	41
54.9430000000	49
54.9730000000	49
55.0030000000	51
55.0330000000	41
55.0630000000	41
55.0930000000	42
55.1230000000	41
55.1530000000	36
55.1830000000	34
55.2130000000	39
55.2430000000	38
55.2730000000	49
55.3030000000	44
55.3330000000	38
55.3630000000	43
55.3930000000	40
55.4230000000	41
55.4530000000	46
55.4830000000	38
55.5130000000	50
55.5430000000	45
55.5730000000	42
55.6030000000	47
55.6330000000	46
55.6630000000	35
55.6930000000	40
55.7230000000	57
55.7530000000	42
55.7830000000	40
55.8130000000	55
55.8430000000	31
55.8730000000	40
55.9030000000	49
55.9330000000	44
55.9630000000	40
55.9930000000	40
56.0230000000	35
56.0530000000	33
56.0830000000	45
56.1130000000	47
56.1430000000	42
56.1730000000	45
56.2030000000	39
56.2330000000	36
56.2630000000	51
56.2930000000	53
56.3230000000	43
56.3530000000	55
56.3830000000	40
56.4130000000	40
56.4430000000	41
56.4730000000	37
56.5030000000	53
56.5330000000	45
56.5630000000	46
56.5930000000	40
56.6230000000	41
56.6530000000	41
56.6830000000	52
56.7130000000	41
56.7430000000	46
56.7730000000	44
56.8030000000	47
56.8330000000	48
56.8630000000	38
56.8930000000	46
56.9230000000	46
56.9530000000	34
56.9830000000	39
57.0130000000	49
57.0430000000	38
57.0730000000	36
57.1030000000	49
57.1330000000	31
57.1630000000	44
57.1930000000	46
57.2230000000	45
57.2530000000	48
57.2830000000	47
57.3130000000	32
57.3430000000	46
57.3730000000	37
57.4030000000	37
57.4330000000	35
57.4630000000	44
57.4930000000	39
57.5230000000	40
57.5530000000	44
57.5830000000	49
57.6130000000	42
57.6430000000	45
57.6730000000	53
57.7030000000	50
57.7330000000	38
57.7630000000	36
57.7930000000	43
57.8230000000	45
57.8530000000	35
57.8830000000	41
57.9130000000	48
57.9430000000	46
57.9730000000	50
58.0030000000	49
58.0330000000	43
58.0630000000	45
58.0930000000	60
58.1230000000	62
58.1530000000	82
58.1830000000	88
58.2130000000	75
58.2430000000	94
58.2730000000	70
58.3030000000	59
58.3330000000	58
58.3630000000	56
58.3930000000	58
58.4230000000	51
58.4530000000	50
58.4830000000	51
58.5130000000	47
58.5430000000	35
58.5730000000	48
58.6030000000	47
58.6330000000	28
58.6630000000	30
58.6930000000	38
58.7230000000	41
58.7530000000	44
58.7830000000	40
58.8130000000	46
58.8430000000	54
58.8730000000	48
58.9030000000	45
58.9330000000	28
58.9630000000	38
58.9930000000	48
59.0230000000	37
59.0530000000	67
59.0830000000	72
59.1130000000	79
59.1430000000	68
59.1730000000	67
59.2030000000	72
59.2330000000	68
59.2630000000	63
59.2930000000	51
59.3230000000	56
59.3530000000	54
59.3830000000	57
59.4130000000	38
59.4430000000	36
59.4730000000	41
59.5030000000	43
59.5330000000	29
59.5630000000	49
59.5930000000	50
59.6230000000	42
59.6530000000	49
59.6830000000	34
59.7130000000	52
59.7430000000	36
59.7730000000	58
59.8030000000	48
59.8330000000	63
59.8630000000	64
59.8930000000	106
59.9230000000	116
59.9530000000	139
59.9830000000	122
60.0130000000	93
60.0430000000	105
60.0730000000	96
60.1030000000	93
60.1330000000	76
60.1630000000	79
60.1930000000	60
60.2230000000	43
60.2530000000	51
60.2830000000	42
60.3130000000	41
60.3430000000	38
60.3730000000	44
60.4030000000	42
60.4330000000	44
60.4630000000	51
60.4930000000	67
60.5230000000	47
60.5530000000	53
60.5830000000	56
60.6130000000	53
60.6430000000	55
60.6730000000	51
60.7030000000	48
60.7330000000	40
60.7630000000	49
60.7930000000	37
60.8230000000	41
60.8530000000	36
60.8830000000	53
60.9130000000	39
60.9430000000	34
60.9730000000	37
61.0030000000	39
61.0330000000	36
61.0630000000	31
61.0930000000	40
61.1230000000	40
61.1530000000	33
61.1830000000	48
61.2130000000	41
61.2430000000	38
61.2730000000	37
61.3030000000	38
61.3330000000	50
61.3630000000	44
61.3930000000	47
61.4230000000	46
61.4530000000	48
61.4830000000	34
61.5130000000	40
61.5430000000	44
61.5730000000	49
61.6030000000	37
61.6330000000	46
61.6630000000	53
61.6930000000	44
61.7230000000	60
61.7530000000	39
61.7830000000	63
61.8130000000	39
61.8430000000	49
61.8730000000	84
61.9030000000	62
61.9330000000	67
61.9630000000	73
61.9930000000	68
62.0230000000	72
62.0530000000	68
62.0830000000	56
62.1130000000	64
62.1430000000	48
62.1730000000	55
62.2030000000	53
62.2330000000	45
62.2630000000	29
62.2930000000	31
62.3230000000	41
62.3530000000	38
62.3830000000	46
62.4130000000	41
62.4430000000	41
62.4730000000	50
62.5030000000	44
62.5330000000	43
62.5630000000	41
62.5930000000	36
62.6230000000	53
62.6530000000	38
62.6830000000	42
62.7130000000	45
62.7430000000	33
62.7730000000	41
62.8030000000	34
62.8330000000	40
62.8630000000	42
62.8930000000	37
62.9230000000	36
62.9530000000	42
62.9830000000	41
63.0130000000	37
63.0430000000	40
63.0730000000	44
63.1030000000	48
63.1330000000	42
63.1630000000	40
63.1930000000	39
63.2230000000	42
63.2530000000	40
63.2830000000	40
63.3130000000	36
63.3430000000	39
63.3730000000	46
63.4030000000	37
63.4330000000	38
63.4630000000	39
63.4930000000	35
63.5230000000	40
63.5530000000	45
63.5830000000	47
63.6130000000	42
63.6430000000	45
63.6730000000	37
63.7030000000	45
63.7330000000	36
63.7630000000	35
63.7930000000	46
63.8230000000	32
63.8530000000	40
63.8830000000	47
63.9130000000	28
63.9430000000	53
63.9730000000	32
64.0030000000	40
64.0330000000	29
64.0630000000	34
64.0930000000	39
64.1230000000	43
64.1530000000	29
64.1830000000	34
64.2130000000	36
64.2430000000	33
64.2730000000	46
64.3030000000	39
64.3330000000	43
64.3630000000	42
64.3930000000	30
64.4230000000	40
64.4530000000	43
64.4830000000	41
64.5130000000	35
64.5430000000	30
64.5730000000	39
64.6030000000	39
64.6330000000	37
64.6630000000	36
64.6930000000	42
64.7230000000	55
64.7530000000	46
64.7830000000	36
64.8130000000	35
64.8430000000	41
64.8730000000	43
64.9030000000	40
64.9330000000	40
64.9630000000	32
64.9930000000	40
65.0230000000	44
65.0530000000	46
65.0830000000	37
65.1130000000	39
65.1430000000	44
65.1730000000	30
65.2030000000	38
65.2330000000	43
65.2630000000	46
65.2930000000	24
65.3230000000	44
65.3530000000	32
65.3830000000	32
65.4130000000	45
65.4430000000	47
65.4730000000	34
65.5030000000	33
65.5330000000	26
65.5630000000	50
65.5930000000	38
65.6230000000	45
65.6530000000	37
65.6830000000	46
65.7130000000	58
65.7430000000	40
65.7730000000	50
65.8030000000	37
65.8330000000	40
65.8630000000	37
65.8930000000	47
65.9230000000	54
65.9530000000	58
65.9830000000	66
66.0130000000	89
66.0430000000	105
66.0730000000	137
66.1030000000	123
66.1330000000	110
66.1630000000	118
66.1930000000	130
66.2230000000	117
66.2530000000	92
66.2830000000	89
66.3130000000	94
66.3430000000	87
66.3730000000	67
66.4030000000	52
66.4330000000	61
66.4630000000	51
66.4930000000	43
66.5230000000	41
66.5530000000	41
66.5830000000	37
66.6130000000	32
66.6430000000	36
66.6730000000	42
66.7030000000	49
66.7330000000	36
66.7630000000	45
66.7930000000	34
66.8230000000	38
66.8530000000	39
66.8830000000	33
66.9130000000	45
66.9430000000	45
66.9730000000	37
67.0030000000	42
67.0330000000	40
67.0630000000	36
67.0930000000	37
67.1230000000	38
67.1530000000	40
67.1830000000	35
67.2130000000	33
67.2430000000	43
67.2730000000	48
67.3030000000	56
67.3330000000	45
67.3630000000	44
67.3930000000	45
67.4230000000	39
67.4530000000	71
67.4830000000	52
67.5130000000	37
67.5430000000	54
67.5730000000	53
67.6030000000	48
67.6330000000	29
67.6630000000	33
67.6930000000	29
67.7230000000	40
67.7530000000	52
67.7830000000	36
67.8130000000	38
67.8430000000	42
67.8730000000	32
67.9030000000	41
67.9330000000	44
67.9630000000	46
67.9930000000	47
68.0230000000	41
68.0530000000	32
68.0830000000	37
68.1130000000	44
68.1430000000	46
68.1730000000	33
68.2030000000	39
68.2330000000	44
68.2630000000	33
68.2930000000	41
68.3230000000	41
68.3530000000	47
68.3830000000	38
68.4130000000	30
68.4430000000	46
68.4730000000	48
68.5030000000	40
68.5330000000	28
68.5630000000	39
68.5930000000	38
68.6230000000	46
68.6530000000	44
68.6830000000	39
68.7130000000	55
68.7430000000	55
68.7730000000	47
68.8030000000	58
68.8330000000	65
68.8630000000	80
68.8930000000	94
68.9230000000	85
68.9530000000	70
68.9830000000	90
69.0130000000	71
69.0430000000	81
69.0730000000	91
69.1030000000	66
69.1330000000	70
69.1630000000	93
69.1930000000	88
69.2230000000	63
69.2530000000	76
69.2830000000	65
69.3130000000	68
69.3430000000	78
69.3730000000	86
69.4030000000	68
69.4330000000	59
69.4630000000	51
69.4930000000	48
69.5230000000	35
69.5530000000	35
69.5830000000	35
69.6130000000	40
69.6430000000	34
69.6730000000	39
69.7030000000	34
69.7330000000	39
69.7630000000	36
69.7930000000	43
69.8230000000	42
69.8530000000	37
69.8830000000	22
69.9130000000	35
69.9430000000	44
69.9730000000	41
70.0030000000	35
70.0330000000	39
70.0630000000	36
70.0930000000	34
70.1230000000	30
70.1530000000	43
70.1830000000	56
70.2130000000	43
70.2430000000	47
70.2730000000	37
70.3030000000	45
70.3330000000	42
70.3630000000	32
70.3930000000	49
70.4230000000	38
70.4530000000	36
70.4830000000	40
70.5130000000	40
70.5430000000	36
70.5730000000	34
70.6030000000	48
70.6330000000	41
70.6630000000	33
70.6930000000	31
70.7230000000	43
70.7530000000	38
70.7830000000	42
70.8130000000	48
70.8430000000	40
70.8730000000	38
70.9030000000	35
70.9330000000	39
70.9630000000	45
70.9930000000	42
71.0230000000	36
71.0530000000	40
71.0830000000	36
71.1130000000	36
71.1430000000	38
71.1730000000	41
71.2030000000	41
71.2330000000	42
71.2630000000	38
71.2930000000	42
71.3230000000	48
71.3530000000	41
71.3830000000	32
71.4130000000	49
71.4430000000	44
71.4730000000	36
71.5030000000	37
71.5330000000	33
71.5630000000	36
71.5930000000	38
71.6230000000	35
71.6530000000	30
71.6830000000	41
71.7130000000	53
71.7430000000	34
71.7730000000	32
71.8030000000	51
71.8330000000	37
71.8630000000	35
71.8930000000	37
71.9230000000	43
71.9530000000	28
71.9830000000	49
72.0130000000	45
72.0430000000	43
72.0730000000	52
72.1030000000	44
72.1330000000	60
72.1630000000	59
72.1930000000	49
72.2230000000	64
72.2530000000	67
72.2830000000	87
72.3130000000	73
72.3430000000	73
72.3730000000	69
72.4030000000	66
72.4330000000	67
72.4630000000	73
72.4930000000	54
72.5230000000	52
72.5530000000	60
72.5830000000	48
72.6130000000	42
72.6430000000	42
72.6730000000	41
72.7030000000	50
72.7330000000	37
72.7630000000	46
72.7930000000	42
72.8230000000	39
72.8530000000	38
72.8830000000	36
72.9130000000	48
72.9430000000	40
72.9730000000	41
73.0030000000	55
73.0330000000	31
73.0630000000	41
73.0930000000	45
73.1230000000	44
73.1530000000	39
73.1830000000	52
73.2130000000	60
73.2430000000	68
73.2730000000	101
73.3030000000	117
73.3330000000	159
73.3630000000	171
73.3930000000	143
73.4230000000	113
73.4530000000	100
73.4830000000	89
73.5130000000	74
73.5430000000	60
73.5730000000	57
73.6030000000	45
73.6330000000	47
73.6630000000	44
73.6930000000	40
73.7230000000	48
73.7530000000	44
73.7830000000	49
73.8130000000	44
73.8430000000	31
73.8730000000	45
73.9030000000	42
73.9330000000	38
73.9630000000	40
73.9930000000	56
74.0230000000	36
74.0530000000	46
74.0830000000	27
74.1130000000	42
74.1430000000	38
74.1730000000	48
74.2030000000	45
74.2330000000	51
74.2630000000	39
74.2930000000	43
74.3230000000	34
74.3530000000	46
74.3830000000	39
74.4130000000	42
74.4430000000	24
74.4730000000	39
74.5030000000	42
74.5330000000	40
74.5630000000	42
74.5930000000	42
74.6230000000	42
74.6530000000	50
74.6830000000	55
74.7130000000	64
74.7430000000	63
74.7730000000	44
74.8030000000	58
74.8330000000	62
74.8630000000	65
74.8930000000	63
74.9230000000	94
74.9530000000	101
74.9830000000	78
75.0130000000	99
75.0430000000	88
75.0730000000	97
75.1030000000	83
75.1330000000	109
75.1630000000	92
75.1930000000	104
75.2230000000	107
75.2530000000	92
75.2830000000	74
75.3130000000	68
75.3430000000	68
75.3730000000	59
75.4030000000	61
75.4330000000	71
75.4630000000	70
75.4930000000	69
75.5230000000	49
75.5530000000	45
75.5830000000	44
75.6130000000	55
75.6430000000	45
75.6730000000	38
75.7030000000	45
75.7330000000	44
75.7630000000	39
75.7930000000	44
75.8230000000	45
75.8530000000	35
75.8830000000	34
75.9130000000	44
75.9430000000	37
75.9730000000	42
76.0030000000	34
76.0330000000	33
76.0630000000	38
76.0930000000	37
76.1230000000	42
76.1530000000	51
76.1830000000	43
76.2130000000	33
76.2430000000	33
76.2730000000	35
76.3030000000	39
76.3330000000	37
76.3630000000	36
76.3930000000	47
76.4230000000	25
76.4530000000	35
76.4830000000	40
76.5130000000	40
76.5430000000	37
76.5730000000	30
76.6030000000	45
76.6330000000	30
76.6630000000	47
76.6930000000	39
76.7230000000	51
76.7530000000	50
76.7830000000	50
76.8130000000	68
76.8430000000	51
76.8730000000	55
76.9030000000	50
76.9330000000	41
76.9630000000	53
76.9930000000	38
77.0230000000	55
77.0530000000	55
77.0830000000	44
77.1130000000	42
77.1430000000	40
77.1730000000	41
77.2030000000	31
77.2330000000	41
77.2630000000	33
77.2930000000	51
77.3230000000	40
77.3530000000	37
77.3830000000	44
77.4130000000	54
77.4430000000	39
77.4730000000	55
77.5030000000	50
77.5330000000	53
77.5630000000	50
77.5930000000	46
77.6230000000	58
77.6530000000	50
77.6830000000	48
77.7130000000	67
77.7430000000	63
77.7730000000	48
77.8030000000	47
77.8330000000	44
77.8630000000	39
77.8930000000	37
77.9230000000	33
77.9530000000	37
77.9830000000	42
78.0130000000	29
78.0430000000	31
78.0730000000	39
78.1030000000	45
78.1330000000	40
78.1630000000	33
78.1930000000	35
78.2230000000	35
78.2530000000	36
78.2830000000	49
78.3130000000	34
78.3430000000	25
78.3730000000	32
78.4030000000	34
78.4330000000	33
78.4630000000	30
78.4930000000	26
78.5230000000	40
78.5530000000	40
78.5830000000	37
78.6130000000	37
78.6430000000	33
78.6730000000	43
78.7030000000	42
78.7330000000	35
78.7630000000	36
78.7930000000	39
78.8230000000	40
78.8530000000	30
78.8830000000	38
78.9130000000	39
78.9430000000	32
78.9730000000	32
79.0030000000	42
79.0330000000	37
79.0630000000	42
79.0930000000	36
79.1230000000	31
79.1530000000	32
79.1830000000	47
79.2130000000	40
79.2430000000	40
79.2730000000	33
79.3030000000	27
79.3330000000	29
79.3630000000	33
79.3930000000	38
79.4230000000	44
79.4530000000	28
79.4830000000	41
79.5130000000	37
79.5430000000	29
79.5730000000	40
79.6030000000	36
79.6330000000	35
79.6630000000	35
79.6930000000	34
79.7230000000	39
79.7530000000	52
79.7830000000	34
79.8130000000	27
79.8430000000	34
79.8730000000	28
79.9030000000	34
79.9330000000	32
79.9630000000	31
79.9930000000	35
80.0230000000	42
80.0530000000	53
80.0830000000	49
80.1130000000	40
80.1430000000	32
80.1730000000	39
80.2030000000	39
80.2330000000	41
80.2630000000	45
80.2930000000	35
80.3230000000	35
80.3530000000	43
80.3830000000	45
80.4130000000	33
80.4430000000	42
80.4730000000	40
80.5030000000	37
80.5330000000	54
80.5630000000	51
80.5930000000	45
80.6230000000	39
80.6530000000	36
80.6830000000	35
80.7130000000	41
80.7430000000	47
80.7730000000	43
80.8030000000	41
80.8330000000	48
80.8630000000	37
80.8930000000	30
80.9230000000	47
80.9530000000	28
80.9830000000	33
81.0130000000	50
81.0430000000	44
81.0730000000	34
81.1030000000	37
81.1330000000	35
81.1630000000	37
81.1930000000	37
81.2230000000	39
81.2530000000	40
81.2830000000	38
81.3130000000	43
81.3430000000	38
81.3730000000	47
81.4030000000	57
81.4330000000	49
81.4630000000	61
81.4930000000	67
81.5230000000	72
81.5530000000	70
81.5830000000	76
81.6130000000	59
81.6430000000	55
81.6730000000	61
81.7030000000	77
81.7330000000	68
81.7630000000	82
81.7930000000	79
81.8230000000	60
81.8530000000	60
81.8830000000	61
81.9130000000	45
81.9430000000	48
81.9730000000	38
82.0030000000	41
82.0330000000	43
82.0630000000	37
82.0930000000	48
82.1230000000	46
82.1530000000	42
82.1830000000	40
82.2130000000	41
82.2430000000	37
82.2730000000	26
82.3030000000	35
82.3330000000	41
82.3630000000	42
82.3930000000	45
82.4230000000	30
82.4530000000	38
82.4830000000	45
82.5130000000	37
82.5430000000	44
82.5730000000	48
82.6030000000	40
82.6330000000	30
82.6630000000	34
82.6930000000	38
82.7230000000	41
82.7530000000	49
82.7830000000	38
82.8130000000	32
82.8430000000	29
82.8730000000	33
82.9030000000	34
82.9330000000	32
82.9630000000	40
82.9930000000	38
83.0230000000	41
83.0530000000	36
83.0830000000	33
83.1130000000	43
83.1430000000	34
83.1730000000	39
83.2030000000	40
83.2330000000	44
83.2630000000	35
83.2930000000	38
83.3230000000	39
83.3530000000	44
83.3830000000	40
83.4130000000	52
83.4430000000	38
83.4730000000	50
83.5030000000	44
83.5330000000	45
83.5630000000	48
83.5930000000	37
83.6230000000	47
83.6530000000	58
83.6830000000	52
83.7130000000	50
83.7430000000	52
83.7730000000	45
83.8030000000	40
83.8330000000	50
83.8630000000	55
83.8930000000	31
83.9230000000	42
83.9530000000	46
83.9830000000	41
84.0130000000	39
84.0430000000	37
84.0730000000	36
84.1030000000	45
84.1330000000	45
84.1630000000	38
84.1930000000	55
84.2230000000	41
84.2530000000	35
84.2830000000	38
84.3130000000	37
84.3430000000	31
84.3730000000	34
84.4030000000	39
84.4330000000	42
84.4630000000	27
84.4930000000	40
84.5230000000	35
84.5530000000	36
84.5830000000	44
84.6130000000	34
84.6430000000	48
84.6730000000	48
84.7030000000	45
84.7330000000	49
84.7630000000	60
84.7930000000	81
84.8230000000	85
84.8530000000	68
84.8830000000	64
84.9130000000	64
84.9430000000	67
84.9730000000	75
85.0030000000	62
85.0330000000	58
85.0630000000	65
85.0930000000	65
85.1230000000	52
85.1530000000	59
85.1830000000	52
85.2130000000	41
85.2430000000	32
85.2730000000	44
85.3030000000	46
85.3330000000	49
85.3630000000	33
85.3930000000	52
85.4230000000	39
85.4530000000	43
85.4830000000	49
85.5130000000	46
85.5430000000	41
85.5730000000	40
85.6030000000	43
85.6330000000	47
85.6630000000	41
85.6930000000	32
85.7230000000	38
85.7530000000	30
85.7830000000	36
85.8130000000	41
85.8430000000	41
85.8730000000	39
85.9030000000	38
85.9330000000	29
85.9630000000	36
85.9930000000	41
86.0230000000	32
86.0530000000	39
86.0830000000	36
86.1130000000	44
86.1430000000	30
86.1730000000	42
86.2030000000	26
86.2330000000	33
86.2630000000	37
86.2930000000	44
86.3230000000	32
86.3530000000	44
86.3830000000	36
86.4130000000	43
86.4430000000	35
86.4730000000	38
86.5030000000	42
86.5330000000	38
86.5630000000	37
86.5930000000	29
86.6230000000	31
86.6530000000	37
86.6830000000	47
86.7130000000	49
86.7430000000	35
86.7730000000	46
86.8030000000	43
86.8330000000	30
86.8630000000	29
86.8930000000	32
86.9230000000	38
86.9530000000	36
86.9830000000	37
87.0130000000	35
87.0430000000	29
87.0730000000	30
87.1030000000	40
87.1330000000	37
87.1630000000	29
87.1930000000	31
87.2230000000	36
87.2530000000	33
87.2830000000	31
87.3130000000	43
87.3430000000	31
87.3730000000	40
87.4030000000	29
87.4330000000	32
87.4630000000	39
87.4930000000	33
87.5230000000	25
87.5530000000	35
87.5830000000	38
87.6130000000	33
87.6430000000	38
87.6730000000	45
87.7030000000	44
87.7330000000	30
87.7630000000	33
87.7930000000	46
87.8230000000	37
87.8530000000	41
87.8830000000	35
87.9130000000	28
87.9430000000	46
87.9730000000	37
88.0030000000	35
88.0330000000	36
88.0630000000	27
88.0930000000	27
88.1230000000	30
88.1530000000	36
88.1830000000	38
88.2130000000	28
88.2430000000	34
88.2730000000	42
88.3030000000	41
88.3330000000	28
88.3630000000	36
88.3930000000	34
88.4230000000	30
88.4530000000	25
88.4830000000	35
88.5130000000	32
88.5430000000	40
88.5730000000	32
88.6030000000	29
88.6330000000	44
88.6630000000	44
88.6930000000	41
88.7230000000	30
88.7530000000	45
88.7830000000	30
88.8130000000	38
88.8430000000	35
88.8730000000	29
88.9030000000	34
88.9330000000	43
88.9630000000	41
88.9930000000	31
89.0230000000	38
89.0530000000	40
89.0830000000	37
89.1130000000	44
89.1430000000	39
89.1730000000	50
89.2030000000	46
89.2330000000	43
89.2630000000	32
89.2930000000	50
89.3230000000	44
89.3530000000	49
89.3830000000	48
89.4130000000	44
89.4430000000	45
89.4730000000	48
89.5030000000	38
89.5330000000	35
89.5630000000	31
89.5930000000	35
89.6230000000	37
89.6530000000	39
89.6830000000	40
89.7130000000	41
89.7430000000	42
89.7730000000	49
89.8030000000	49
89.8330000000	39
89.8630000000	44
89.8930000000	52
89.9230000000	36
89.9530000000	43
89.9830000000	44
90.0130000000	41
90.0430000000	44
90.0730000000	38
90.1030000000	56
90.1330000000	46
90.1630000000	49
90.1930000000	42
90.2230000000	42
90.2530000000	32
90.2830000000	24
90.3130000000	37
90.3430000000	44
90.3730000000	35
90.4030000000	35
90.4330000000	35
90.4630000000	31
90.4930000000	37
90.5230000000	41
90.5530000000	33
90.5830000000	41
90.6130000000	29
90.6430000000	29
90.6730000000	40
90.7030000000	32
90.7330000000	36
90.7630000000	41
90.7930000000	28
90.8230000000	26
90.8530000000	29
90.8830000000	27
90.9130000000	29
90.9430000000	29
90.9730000000	45
91.0030000000	30
91.0330000000	40
91.0630000000	42
91.0930000000	41
91.1230000000	46
91.1530000000	27
91.1830000000	32
91.2130000000	21
91.2430000000	29
91.2730000000	33
91.3030000000	38
91.3330000000	32
91.3630000000	43
91.3930000000	45
91.4230000000	43
91.4530000000	31
91.4830000000	40
91.5130000000	41
91.5430000000	41
91.5730000000	33
91.6030000000	37
91.6330000000	41
91.6630000000	32
91.6930000000	35
91.7230000000	38
91.7530000000	40
91.7830000000	40
91.8130000000	29
91.8430000000	25
91.8730000000	42
91.9030000000	40
91.9330000000	26
91.9630000000	46
91.9930000000	36
92.0230000000	29
92.0530000000	33
92.0830000000	37
92.1130000000	33
92.1430000000	39
92.1730000000	34
92.2030000000	44
92.2330000000	36
92.2630000000	29
92.2930000000	33
92.3230000000	31
92.3530000000	40
92.3830000000	35
92.4130000000	43
92.4430000000	46
92.4730000000	31
92.5030000000	32
92.5330000000	41
92.5630000000	31
92.5930000000	34
92.6230000000	47
92.6530000000	43
92.6830000000	45
92.7130000000	45
92.7430000000	38
92.7730000000	33
92.8030000000	43
92.8330000000	38
92.8630000000	38
92.8930000000	35
92.9230000000	46
92.9530000000	36
92.9830000000	36
93.0130000000	48
93.0430000000	41
93.0730000000	30
93.1030000000	33
93.1330000000	39
93.1630000000	40
93.1930000000	34
93.2230000000	32
93.2530000000	32
93.2830000000	29
93.3130000000	34
93.3430000000	31
93.3730000000	37
93.4030000000	34
93.4330000000	44
93.4630000000	37
93.4930000000	34
93.5230000000	39
93.5530000000	32
93.5830000000	31
93.6130000000	35
93.6430000000	31
93.6730000000	44
93.7030000000	42
93.7330000000	30
93.7630000000	34
93.7930000000	38
93.8230000000	29
93.8530000000	54
93.8830000000	43
93.9130000000	37
93.9430000000	41
93.9730000000	39
94.0030000000	36
94.0330000000	36
94.0630000000	44
94.0930000000	34
94.1230000000	39
94.1530000000	44
94.1830000000	45
94.2130000000	45
94.2430000000	42
94.2730000000	39
94.3030000000	42
94.3330000000	41
94.3630000000	43
94.3930000000	45
94.4230000000	56
94.4530000000	47
94.4830000000	53
94.5130000000	57
94.5430000000	63
94.5730000000	69
94.6030000000	55
94.6330000000	46
94.6630000000	49
94.6930000000	49
94.7230000000	52
94.7530000000	57
94.7830000000	56
94.8130000000	63
94.8430000000	47
94.8730000000	35
94.9030000000	36
94.9330000000	46
94.9630000000	61
94.9930000000	34
95.0230000000	39
95.0530000000	41
95.0830000000	34
95.1130000000	36
95.1430000000	39
95.1730000000	35
95.2030000000	37
95.2330000000	39
95.2630000000	41
95.2930000000	43
95.3230000000	43
95.3530000000	39
95.3830000000	42
95.4130000000	40
95.4430000000	27
95.4730000000	46
95.5030000000	52
95.5330000000	42
95.5630000000	38
95.5930000000	42
95.6230000000	34
95.6530000000	42
95.6830000000	41
95.7130000000	42
95.7430000000	34
95.7730000000	41
95.8030000000	33
95.8330000000	35
95.8630000000	36
95.8930000000	27
95.9230000000	38
95.9530000000	39
95.9830000000	35
96.0130000000	42
96.0430000000	47
96.0730000000	39
96.1030000000	34
96.1330000000	45
96.1630000000	33
96.1930000000	26
96.2230000000	40
96.2530000000	34
96.2830000000	40
96.3130000000	41
96.3430000000	41
96.3730000000	35
96.4030000000	38
96.4330000000	32
96.4630000000	33
96.4930000000	33
96.5230000000	35
96.5530000000	34
96.5830000000	33
96.6130000000	37
96.6430000000	37
96.6730000000	29
96.7030000000	39
96.7330000000	43
96.7630000000	43
96.7930000000	35
96.8230000000	25
96.8530000000	30
96.8830000000	33
96.9130000000	39
96.9430000000	40
96.9730000000	28
97.0030000000	30
97.0330000000	39
97.0630000000	31
97.0930000000	36
97.1230000000	36
97.1530000000	39
97.1830000000	31
97.2130000000	32
97.2430000000	30
97.2730000000	38
97.3030000000	39
97.3330000000	36
97.3630000000	32
97.3930000000	35
97.4230000000	36
97.4530000000	36
97.4830000000	45
97.5130000000	35
97.5430000000	34
97.5730000000	33
97.6030000000	29
97.6330000000	38
97.6630000000	35
97.6930000000	25
97.7230000000	27
97.7530000000	31
97.7830000000	35
97.8130000000	38
97.8430000000	35
97.8730000000	32
97.9030000000	42
97.9330000000	30
97.9630000000	43
97.9930000000	40
98.0230000000	34
98.0530000000	44
98.0830000000	47
98.1130000000	37
98.1430000000	42
98.1730000000	27
98.2030000000	35
98.2330000000	35
98.2630000000	38
98.2930000000	29
98.3230000000	27
98.3530000000	33
98.3830000000	42
98.4130000000	31
98.4430000000	39
98.4730000000	23
98.5030000000	31
98.5330000000	36
98.5630000000	38
98.5930000000	34
98.6230000000	35
98.6530000000	49
98.6830000000	44
98.7130000000	40
98.7430000000	45
98.7730000000	43
98.8030000000	42
98.8330000000	44
98.8630000000	44
98.8930000000	42
98.9230000000	41
98.9530000000	36
98.9830000000	44
99.0130000000	44
99.0430000000	37
99.0730000000	46
99.1030000000	44
99.1330000000	38
99.1630000000	37
99.1930000000	39
99.2230000000	34
99.2530000000	27
99.2830000000	41
99.3130000000	49
99.3430000000	30
99.3730000000	36
99.4030000000	26
99.4330000000	32
99.4630000000	34
99.4930000000	37
99.5230000000	38
99.5530000000	40
99.5830000000	30
99.6130000000	39
99.6430000000	37
99.6730000000	32
99.7030000000	36
99.7330000000	30
99.7630000000	35
99.7930000000	30
99.8230000000	40
99.8530000000	30
99.8830000000	35
99.9130000000	32
99.9430000000	28
99.9730000000	39
100.0030000000	43
100.0330000000	39
100.0630000000	38
100.0930000000	42
100.1230000000	37
100.1530000000	31
100.1830000000	33
100.2130000000	35
100.2430000000	36
100.2730000000	41
100.3030000000	47
100.3330000000	32
100.3630000000	33
100.3930000000	37
100.4230000000	31
100.4530000000	35
100.4830000000	29
100.5130000000	39
100.5430000000	34
100.5730000000	27
100.6030000000	40
100.6330000000	30
100.6630000000	31
100.6930000000	44
100.7230000000	24
100.7530000000	27
100.7830000000	35
100.8130000000	33
100.8430000000	44
100.8730000000	34
100.9030000000	32
100.9330000000	30
100.9630000000	33
100.9930000000	24
101.0230000000	37
101.0530000000	30
101.0830000000	38
101.1130000000	42
101.1430000000	36
101.1730000000	39
101.2030000000	41
101.2330000000	35
101.2630000000	34
101.2930000000	35
101.3230000000	34
101.3530000000	37
101.3830000000	37
101.4130000000	34
101.4430000000	39
101.4730000000	35
101.5030000000	29
101.5330000000	31
101.5630000000	32
101.5930000000	31
101.6230000000	34
101.6530000000	34
101.6830000000	33
101.7130000000	43
101.7430000000	39
101.7730000000	32
101.8030000000	30
101.8330000000	33
101.8630000000	44
101.8930000000	33
101.9230000000	38
101.9530000000	38
101.9830000000	32
102.0130000000	21
102.0430000000	41
102.0730000000	38
102.1030000000	29
102.1330000000	44
102.1630000000	39
102.1930000000	40
102.2230000000	49
102.2530000000	36
102.2830000000	39
102.3130000000	35
102.3430000000	26
102.3730000000	34
102.4030000000	39
102.4330000000	31
102.4630000000	38
102.4930000000	44
102.5230000000	33
102.5530000000	38
102.5830000000	27
102.6130000000	39
102.6430000000	38
102.6730000000	35
102.7030000000	33
102.7330000000	26
102.7630000000	38
102.7930000000	34
102.8230000000	28
102.8530000000	35
102.8830000000	41
102.9130000000	37
102.9430000000	26
102.9730000000	35
103.0030000000	36
103.0330000000	33
103.0630000000	36
103.0930000000	36
103.1230000000	40
103.1530000000	42
103.1830000000	39
103.2130000000	39
103.2430000000	33
103.2730000000	31
103.3030000000	35
103.3330000000	36
103.3630000000	44
103.3930000000	36
103.4230000000	27
103.4530000000	32
103.4830000000	32
103.5130000000	37
103.5430000000	29
103.5730000000	24
103.6030000000	39
103.6330000000	29
103.6630000000	30
103.6930000000	43
103.7230000000	35
103.7530000000	44
103.7830000000	36
103.8130000000	30
103.8430000000	43
103.8730000000	40
103.9030000000	32
103.9330000000	37
103.9630000000	37
103.9930000000	39
104.0230000000	45
104.0530000000	50
104.0830000000	52
104.1130000000	39
104.1430000000	47
104.1730000000	39
104.2030000000	49
104.2330000000	56
104.2630000000	44
104.2930000000	61
104.3230000000	37
104.3530000000	43
104.3830000000	44
104.4130000000	36
104.4430000000	46
104.4730000000	47
104.5030000000	38
104.5330000000	39
104.5630000000	51
104.5930000000	42
104.6230000000	34
104.6530000000	44
104.6830000000	33
104.7130000000	38
104.7430000000	39
104.7730000000	32
104.8030000000	34
104.8330000000	35
104.8630000000	41
104.8930000000	34
104.9230000000	35
104.9530000000	35
104.9830000000	37
105.0130000000	41
105.0430000000	31
105.0730000000	42
105.1030000000	47
105.1330000000	40
105.1630000000	42
105.1930000000	35
105.2230000000	31
105.2530000000	37
105.2830000000	31
105.3130000000	50
105.3430000000	34
105.3730000000	39
105.4030000000	48
105.4330000000	43
105.4630000000	37
105.4930000000	43
105.5230000000	44
105.5530000000	41
105.5830000000	27
105.6130000000	37
105.6430000000	38
105.6730000000	49
105.7030000000	46
105.7330000000	45
105.7630000000	27
105.7930000000	40
105.8230000000	42
105.8530000000	37
105.8830000000	38
105.9130000000	35
105.9430000000	25
105.9730000000	29
106.0030000000	32
106.0330000000	42
106.0630000000	41
106.0930000000	37
106.1230000000	37
106.1530000000	34
106.1830000000	48
106.2130000000	35
106.2430000000	33
106.2730000000	33
106.3030000000	36
106.3330000000	43
106.3630000000	34
106.3930000000	39
106.4230000000	38
106.4530000000	37
106.4830000000	36
106.5130000000	26
106.5430000000	32
106.5730000000	39
106.6030000000	36
106.6330000000	38
106.6630000000	35
106.6930000000	27
106.7230000000	32
106.7530000000	33
106.7830000000	38
106.8130000000	40
106.8430000000	30
106.8730000000	34
106.9030000000	30
106.9330000000	31
106.9630000000	25
106.9930000000	48
107.0230000000	35
107.0530000000	33
107.0830000000	42
107.1130000000	27
107.1430000000	26
107.1730000000	33
107.2030000000	34
107.2330000000	34
107.2630000000	34
107.2930000000	30
107.3230000000	30
107.3530000000	45
107.3830000000	47
107.4130000000	35
107.4430000000	29
107.4730000000	29
107.5030000000	38
107.5330000000	38
107.5630000000	35
107.5930000000	32
107.6230000000	33
107.6530000000	30
107.6830000000	31
107.7130000000	35
107.7430000000	33
107.7730000000	24
107.8030000000	32
107.8330000000	41
107.8630000000	32
107.8930000000	31
107.9230000000	33
107.9530000000	34
107.9830000000	43
108.0130000000	31
108.0430000000	31
108.0730000000	37
108.1030000000	37
108.1330000000	32
108.1630000000	45
108.1930000000	39
108.2230000000	43
108.2530000000	45
108.2830000000	37
108.3130000000	50
108.3430000000	43
108.3730000000	41
108.4030000000	53
108.4330000000	43
108.4630000000	41
108.4930000000	36
108.5230000000	51
108.5530000000	42
108.5830000000	39
108.6130000000	51
108.6430000000	38
108.6730000000	45
108.7030000000	52
108.7330000000	51
108.7630000000	43
108.7930000000	39
108.8230000000	48
108.8530000000	44
108.8830000000	47
108.9130000000	48
108.9430000000	37
108.9730000000	51
109.0030000000	50
109.0330000000	54
109.0630000000	65
109.0930000000	62
109.1230000000	55
109.1530000000	49
109.1830000000	54
109.2130000000	49
109.2430000000	49
109.2730000000	44
109.3030000000	42
109.3330000000	59
109.3630000000	31
109.3930000000	38
109.4230000000	37
109.4530000000	34
109.4830000000	31
109.5130000000	48
109.5430000000	31
109.5730000000	40
109.6030000000	36
109.6330000000	41
109.6630000000	38
109.6930000000	28
109.7230000000	36
109.7530000000	43
109.7830000000	41
109.8130000000	46
109.8430000000	37
109.8730000000	33
109.9030000000	31
109.9330000000	27
109.9630000000	33
109.9930000000	34
110.0230000000	37
110.0530000000	26
110.0830000000	40
110.1130000000	40
110.1430000000	40
110.1730000000	33
110.2030000000	34
110.2330000000	42
110.2630000000	35
110.2930000000	27
110.3230000000	44
110.3530000000	30
110.3830000000	34
110.4130000000	46
110.4430000000	41
110.4730000000	33
110.5030000000	39
110.5330000000	55
110.5630000000	31
110.5930000000	32
110.6230000000	34
110.6530000000	35
110.6830000000	36
110.7130000000	39
110.7430000000	33
110.7730000000	39
110.8030000000	32
110.8330000000	41
110.8630000000	38
110.8930000000	34
110.9230000000	26
110.9530000000	31
110.9830000000	43
111.0130000000	40
111.0430000000	38
111.0730000000	40
111.1030000000	45
111.1330000000	44
111.1630000000	37
111.1930000000	34
111.2230000000	38
111.2530000000	45
111.2830000000	36
111.3130000000	46
111.3430000000	41
111.3730000000	33
111.4030000000	36
111.4330000000	41
111.4630000000	42
111.4930000000	38
111.5230000000	38
111.5530000000	37
111.5830000000	34
111.6130000000	39
111.6430000000	43
111.6730000000	35
111.7030000000	41
111.7330000000	43
111.7630000000	34
111.7930000000	32
111.8230000000	38
111.8530000000	39
111.8830000000	53
111.9130000000	44
111.9430000000	37
111.9730000000	29
112.0030000000	32
112.0330000000	40
112.0630000000	34
112.0930000000	41
112.1230000000	37
112.1530000000	38
112.1830000000	30
112.2130000000	29
112.2430000000	52
112.2730000000	39
112.3030000000	30
112.3330000000	30
112.3630000000	29
112.3930000000	34
112.4230000000	33
112.4530000000	33
112.4830000000	38
112.5130000000	41
112.5430000000	29
112.5730000000	35
112.6030000000	37
112.6330000000	23
112.6630000000	33
112.6930000000	31
112.7230000000	37
112.7530000000	39
112.7830000000	26
112.8130000000	31
112.8430000000	31
112.8730000000	40
112.9030000000	32
112.9330000000	38
112.9630000000	36
112.9930000000	38
113.0230000000	39
113.0530000000	52
113.0830000000	34
113.1130000000	39
113.1430000000	25
113.1730000000	35
113.2030000000	40
113.2330000000	42
113.2630000000	42
113.2930000000	40
113.3230000000	34
113.3530000000	36
113.3830000000	47
113.4130000000	45
113.4430000000	36
113.4730000000	40
113.5030000000	30
113.5330000000	30
113.5630000000	29
113.5930000000	38
113.6230000000	33
113.6530000000	38
113.6830000000	33
113.7130000000	38
113.7430000000	35
113.7730000000	40
113.8030000000	37
113.8330000000	34
113.8630000000	30
113.8930000000	33
113.9230000000	43
113.9530000000	36
113.9830000000	50
114.0130000000	32
114.0430000000	30
114.0730000000	33
114.1030000000	35
114.1330000000	39
114.1630000000	35
114.1930000000	42
114.2230000000	41
114.2530000000	36
114.2830000000	34
114.3130000000	33
114.3430000000	37
114.3730000000	42
114.4030000000	37
114.4330000000	41
114.4630000000	1
114.4930000000	1
114.5230000000	1
114.5530000000	1
114.5830000000	1
