0.3130000000	1
0.3430000000	1
0.3730000000	1
0.4030000000	1
0.4330000000	1
0.4630000000	1
0.4930000000	1
0.5230000000	1
0.5530000000	1
0.5830000000	2
0.6130000000	1
0.6430000000	1
0.6730000000	1
0.7030000000	2
0.7330000000	1
0.7630000000	1
0.7930000000	1
0.8230000000	1
0.8530000000	1
0.8830000000	1
0.9130000000	1
0.9430000000	1
0.9730000000	1
1.0030000000	1
1.0330000000	1
1.0630000000	1
1.0930000000	1
1.1230000000	1
1.1530000000	1
1.1830000000	1
1.2130000000	3
1.2430000000	2
1.2730000000	1
1.3030000000	2
1.3330000000	1
1.3630000000	2
1.3930000000	1
1.4230000000	1
1.4530000000	1
1.4830000000	1
1.5130000000	1
1.5430000000	1
1.5730000000	2
1.6030000000	1
1.6330000000	1
1.6630000000	2
1.6930000000	1
1.7230000000	1
1.7530000000	1
1.7830000000	1
1.8130000000	1
1.8430000000	1
1.8730000000	1
1.9030000000	1
1.9330000000	1
1.9630000000	2
1.9930000000	1
2.0230000000	1
2.0530000000	1
2.0830000000	1
2.1130000000	2
2.1430000000	2
2.1730000000	1
2.2030000000	2
2.2330000000	2
2.2630000000	1
2.2930000000	1
2.3230000000	1
2.3530000000	2
2.3830000000	2
2.4130000000	1
2.4430000000	1
2.4730000000	1
2.5030000000	1
2.5330000000	1
2.5630000000	3
2.5930000000	2
2.6230000000	1
2.6530000000	1
2.6830000000	2
2.7130000000	1
2.7430000000	1
2.7730000000	1
2.8030000000	1
2.8330000000	1
2.8630000000	1
2.8930000000	2
2.9230000000	1
2.9530000000	2
2.9830000000	1
3.0130000000	1
3.0430000000	2
3.0730000000	1
3.1030000000	2
3.1330000000	3
3.1630000000	1
3.1930000000	4
3.2230000000	2
3.2530000000	4
3.2830000000	2
3.3130000000	2
3.3430000000	2
3.3730000000	3
3.4030000000	2
3.4330000000	3
3.4630000000	1
3.4930000000	3
3.5230000000	3
3.5530000000	2
3.5830000000	1
3.6130000000	2
3.6430000000	2
3.6730000000	3
3.7030000000	1
3.7330000000	2
3.7630000000	2
3.7930000000	1
3.8230000000	2
3.8530000000	2
3.8830000000	3
3.9130000000	2
3.9430000000	4
3.9730000000	2
4.0030000000	2
4.0330000000	1
4.0630000000	1
4.0930000000	4
4.1230000000	1
4.1530000000	3
4.1830000000	2
4.2130000000	5
4.2430000000	3
4.2730000000	4
4.3030000000	4
4.3330000000	3
4.3630000000	2
4.3930000000	7
4.4230000000	7
4.4530000000	11
4.4830000000	17
4.5130000000	22
4.5430000000	41
4.5730000000	53
4.6030000000	81
4.6330000000	95
4.6630000000	107
4.6930000000	126
4.7230000000	125
4.7530000000	159
4.7830000000	149
4.8130000000	129
4.8430000000	137
4.8730000000	127
4.9030000000	134
4.9330000000	158
4.9630000000	133
4.9930000000	137
5.0230000000	124
5.0530000000	137
5.0830000000	138
5.1130000000	160
5.1430000000	134
5.1730000000	153
5.2030000000	136
5.2330000000	138
5.2630000000	129
5.2930000000	134
5.3230000000	149
5.3530000000	138
5.3830000000	159
5.4130000000	151
5.4430000000	163
5.4730000000	146
5.5030000000	148
5.5330000000	149
5.5630000000	136
5.5930000000	150
5.6230000000	157
5.6530000000	142
5.6830000000	172
5.7130000000	157
5.7430000000	153
5.7730000000	129
5.8030000000	149
5.8330000000	150
5.8630000000	136
5.8930000000	142
5.9230000000	142
5.9530000000	149
5.9830000000	135
6.0130000000	157
6.0430000000	163
6.0730000000	157
6.1030000000	130
6.1330000000	124
6.1630000000	143
6.1930000000	163
6.2230000000	139
6.2530000000	154
6.2830000000	159
6.3130000000	149
6.3430000000	158
6.3730000000	123
6.4030000000	141
6.4330000000	151
6.4630000000	139
6.4930000000	150
6.5230000000	157
6.5530000000	127
6.5830000000	131
6.6130000000	165
6.6430000000	150
6.6730000000	137
6.7030000000	147
6.7330000000	134
6.7630000000	149
6.7930000000	152
6.8230000000	156
6.8530000000	135
6.8830000000	141
6.9130000000	146
6.9430000000	133
6.9730000000	138
7.0030000000	159
7.0330000000	130
7.0630000000	156
7.0930000000	142
7.1230000000	154
7.1530000000	152
7.1830000000	153
7.2130000000	151
7.2430000000	146
7.2730000000	159
7.3030000000	143
7.3330000000	143
7.3630000000	147
7.3930000000	152
7.4230000000	152
7.4530000000	151
7.4830000000	144
7.5130000000	143
7.5430000000	153
7.5730000000	159
7.6030000000	145
7.6330000000	126
7.6630000000	133
7.6930000000	142
7.7230000000	162
7.7530000000	146
7.7830000000	139
7.8130000000	148
7.8430000000	140
7.8730000000	128
7.9030000000	147
7.9330000000	169
7.9630000000	143
7.9930000000	144
8.0230000000	162
8.0530000000	141
8.0830000000	123
8.1130000000	146
8.1430000000	164
8.1730000000	152
8.2030000000	124
8.2330000000	119
8.2630000000	144
8.2930000000	133
8.3230000000	138
8.3530000000	142
8.3830000000	134
8.4130000000	157
8.4430000000	147
8.4730000000	160
8.5030000000	150
8.5330000000	150
8.5630000000	152
8.5930000000	130
8.6230000000	139
8.6530000000	158
8.6830000000	136
8.7130000000	122
8.7430000000	138
8.7730000000	131
8.8030000000	156
8.8330000000	157
8.8630000000	154
8.8930000000	126
8.9230000000	141
8.9530000000	149
8.9830000000	128
9.0130000000	148
9.0430000000	155
9.0730000000	148
9.1030000000	151
9.1330000000	151
9.1630000000	156
9.1930000000	144
9.2230000000	155
9.2530000000	145
9.2830000000	146
9.3130000000	135
9.3430000000	154
9.3730000000	142
9.4030000000	151
9.4330000000	165
9.4630000000	160
9.4930000000	141
9.5230000000	141
9.5530000000	151
9.5830000000	145
9.6130000000	145
9.6430000000	144
9.6730000000	140
9.7030000000	132
9.7330000000	151
9.7630000000	141
9.7930000000	168
9.8230000000	158
9.8530000000	149
9.8830000000	139
9.9130000000	146
9.9430000000	133
9.9730000000	144
10.0030000000	132
10.0330000000	139
10.0630000000	135
10.0930000000	128
10.1230000000	144
10.1530000000	161
10.1830000000	140
10.2130000000	148
10.2430000000	143
10.2730000000	149
10.3030000000	139
10.3330000000	140
10.3630000000	159
10.3930000000	126
10.4230000000	161
10.4530000000	144
10.4830000000	128
10.5130000000	139
10.5430000000	138
10.5730000000	147
10.6030000000	146
10.6330000000	158
10.6630000000	169
10.6930000000	144
10.7230000000	155
10.7530000000	140
10.7830000000	164
10.8130000000	153
10.8430000000	148
10.8730000000	160
10.9030000000	149
10.9330000000	162
10.9630000000	159
10.9930000000	148
11.0230000000	139
11.0530000000	130
11.0830000000	152
11.1130000000	142
11.1430000000	158
11.1730000000	162
11.2030000000	160
11.2330000000	134
11.2630000000	146
11.2930000000	148
11.3230000000	141
11.3530000000	128
11.3830000000	124
11.4130000000	137
11.4430000000	165
11.4730000000	154
11.5030000000	147
11.5330000000	157
11.5630000000	161
11.5930000000	141
11.6230000000	133
11.6530000000	144
11.6830000000	161
11.7130000000	149
11.7430000000	152
11.7730000000	140
11.8030000000	148
11.8330000000	134
11.8630000000	143
11.8930000000	169
11.9230000000	139
11.9530000000	138
11.9830000000	151
12.0130000000	135
12.0430000000	152
12.0730000000	149
12.1030000000	143
12.1330000000	145
12.1630000000	145
12.1930000000	145
12.2230000000	147
12.2530000000	148
12.2830000000	150
12.3130000000	146
12.3430000000	139
12.3730000000	142
12.4030000000	138
12.4330000000	128
12.4630000000	135
12.4930000000	138
12.5230000000	132
12.5530000000	130
12.5830000000	159
12.6130000000	144
12.6430000000	124
12.6730000000	152
12.7030000000	164
12.7330000000	149
12.7630000000	141
12.7930000000	155
12.8230000000	151
12.8530000000	147
12.8830000000	153
12.9130000000	142
12.9430000000	153
12.9730000000	158
13.0030000000	158
13.0330000000	151
13.0630000000	151
13.0930000000	165
13.1230000000	154
13.1530000000	148
13.1830000000	142
13.2130000000	132
13.2430000000	156
13.2730000000	164
13.3030000000	139
13.3330000000	151
13.3630000000	148
13.3930000000	136
13.4230000000	135
13.4530000000	128
13.4830000000	145
13.5130000000	152
13.5430000000	159
13.5730000000	152
13.6030000000	158
13.6330000000	170
13.6630000000	156
13.6930000000	139
13.7230000000	166
13.7530000000	146
13.7830000000	154
13.8130000000	130
13.8430000000	139
13.8730000000	131
13.9030000000	134
13.9330000000	150
13.9630000000	157
13.9930000000	131
14.0230000000	139
14.0530000000	155
14.0830000000	147
14.1130000000	139
14.1430000000	152
14.1730000000	153
14.2030000000	147
14.2330000000	146
14.2630000000	150
14.2930000000	158
14.3230000000	131
14.3530000000	167
14.3830000000	157
14.4130000000	137
14.4430000000	158
14.4730000000	145
14.5030000000	136
14.5330000000	138
14.5630000000	163
14.5930000000	156
14.6230000000	128
14.6530000000	141
14.6830000000	140
14.7130000000	153
14.7430000000	153
14.7730000000	154
14.8030000000	159
14.8330000000	130
14.8630000000	140
14.8930000000	147
14.9230000000	159
14.9530000000	163
14.9830000000	148
15.0130000000	165
15.0430000000	169
15.0730000000	165
15.1030000000	148
15.1330000000	131
15.1630000000	142
15.1930000000	167
15.2230000000	137
15.2530000000	142
15.2830000000	140
15.3130000000	151
15.3430000000	148
15.3730000000	152
15.4030000000	144
15.4330000000	153
15.4630000000	184
15.4930000000	137
15.5230000000	128
15.5530000000	168
15.5830000000	171
15.6130000000	141
15.6430000000	168
15.6730000000	138
15.7030000000	156
15.7330000000	160
15.7630000000	129
15.7930000000	149
15.8230000000	161
15.8530000000	160
15.8830000000	148
15.9130000000	163
15.9430000000	168
15.9730000000	149
16.0030000000	135
16.0330000000	124
16.0630000000	146
16.0930000000	132
16.1230000000	125
16.1530000000	163
16.1830000000	157
16.2130000000	149
16.2430000000	143
16.2730000000	121
16.3030000000	157
16.3330000000	153
16.3630000000	143
16.3930000000	154
16.4230000000	130
16.4530000000	157
16.4830000000	150
16.5130000000	143
16.5430000000	156
16.5730000000	139
16.6030000000	152
16.6330000000	149
16.6630000000	129
16.6930000000	162
16.7230000000	138
16.7530000000	142
16.7830000000	135
16.8130000000	147
16.8430000000	160
16.8730000000	142
16.9030000000	123
16.9330000000	136
16.9630000000	161
16.9930000000	165
17.0230000000	149
17.0530000000	143
17.0830000000	129
17.1130000000	138
17.1430000000	133
17.1730000000	136
17.2030000000	150
17.2330000000	157
17.2630000000	151
17.2930000000	142
17.3230000000	155
17.3530000000	155
17.3830000000	164
17.4130000000	144
17.4430000000	148
17.4730000000	156
17.5030000000	149
17.5330000000	138
17.5630000000	155
17.5930000000	157
17.6230000000	149
17.6530000000	144
17.6830000000	141
17.7130000000	129
17.7430000000	139
17.7730000000	162
17.8030000000	146
17.8330000000	132
17.8630000000	162
17.8930000000	165
17.9230000000	143
17.9530000000	140
17.9830000000	141
18.0130000000	148
18.0430000000	152
18.0730000000	152
18.1030000000	148
18.1330000000	152
18.1630000000	146
18.1930000000	144
18.2230000000	143
18.2530000000	142
18.2830000000	124
18.3130000000	149
18.3430000000	129
18.3730000000	151
18.4030000000	140
18.4330000000	154
18.4630000000	118
18.4930000000	152
18.5230000000	136
18.5530000000	154
18.5830000000	150
18.6130000000	153
18.6430000000	148
18.6730000000	153
18.7030000000	162
18.7330000000	157
18.7630000000	135
18.7930000000	148
18.8230000000	173
18.8530000000	164
18.8830000000	149
18.9130000000	157
18.9430000000	167
18.9730000000	180
19.0030000000	147
19.0330000000	155
19.0630000000	158
19.0930000000	159
19.1230000000	147
19.1530000000	161
19.1830000000	140
19.2130000000	119
19.2430000000	159
19.2730000000	174
19.3030000000	154
19.3330000000	144
19.3630000000	166
19.3930000000	175
19.4230000000	185
19.4530000000	200
19.4830000000	199
19.5130000000	213
19.5430000000	229
19.5730000000	239
19.6030000000	197
19.6330000000	218
19.6630000000	196
19.6930000000	159
19.7230000000	177
19.7530000000	167
19.7830000000	140
19.8130000000	145
19.8430000000	149
19.8730000000	146
19.9030000000	153
19.9330000000	161
19.9630000000	152
19.9930000000	133
20.0230000000	153
20.0530000000	149
20.0830000000	154
20.1130000000	164
20.1430000000	173
20.1730000000	158
20.2030000000	161
20.2330000000	151
20.2630000000	168
20.2930000000	148
20.3230000000	157
20.3530000000	148
20.3830000000	116
20.4130000000	174
20.4430000000	169
20.4730000000	181
20.5030000000	163
20.5330000000	171
20.5630000000	158
20.5930000000	181
20.6230000000	226
20.6530000000	214
20.6830000000	298
20.7130000000	437
20.7430000000	827
20.7730000000	1235
20.8030000000	1879
20.8330000000	2853
20.8630000000	4626
20.8930000000	7396
20.9230000000	8621
20.9530000000	7303
20.9830000000	4682
21.0130000000	2764
21.0430000000	1606
21.0730000000	942
21.1030000000	633
21.1330000000	383
21.1630000000	256
21.1930000000	232
21.2230000000	212
21.2530000000	181
21.2830000000	195
21.3130000000	193
21.3430000000	164
21.3730000000	171
21.4030000000	186
21.4330000000	164
21.4630000000	125
21.4930000000	169
21.5230000000	146
21.5530000000	175
21.5830000000	189
21.6130000000	166
21.6430000000	156
21.6730000000	151
21.7030000000	151
21.7330000000	151
21.7630000000	163
21.7930000000	153
21.8230000000	160
21.8530000000	164
21.8830000000	159
21.9130000000	157
21.9430000000	168
21.9730000000	151
22.0030000000	149
22.0330000000	143
22.0630000000	157
22.0930000000	164
22.1230000000	164
22.1530000000	163
22.1830000000	155
22.2130000000	157
22.2430000000	158
22.2730000000	157
22.3030000000	171
22.3330000000	171
22.3630000000	169
22.3930000000	170
22.4230000000	179
22.4530000000	179
22.4830000000	167
22.5130000000	172
22.5430000000	173
22.5730000000	178
22.6030000000	196
22.6330000000	201
22.6630000000	196
22.6930000000	182
22.7230000000	181
22.7530000000	209
22.7830000000	186
22.8130000000	174
22.8430000000	173
22.8730000000	150
22.9030000000	179
22.9330000000	187
22.9630000000	199
22.9930000000	165
23.0230000000	170
23.0530000000	155
23.0830000000	162
23.1130000000	186
23.1430000000	170
23.1730000000	157
23.2030000000	174
23.2330000000	166
23.2630000000	171
23.2930000000	177
23.3230000000	165
23.3530000000	157
23.3830000000	162
23.4130000000	158
23.4430000000	189
23.4730000000	173
23.5030000000	170
23.5330000000	174
23.5630000000	165
23.5930000000	151
23.6230000000	172
23.6530000000	174
23.6830000000	171
23.7130000000	175
23.7430000000	173
23.7730000000	163
23.8030000000	154
23.8330000000	176
23.8630000000	165
23.8930000000	202
23.9230000000	167
23.9530000000	160
23.9830000000	159
24.0130000000	170
24.0430000000	156
24.0730000000	163
24.1030000000	157
24.1330000000	179
24.1630000000	197
24.1930000000	166
24.2230000000	169
24.2530000000	183
24.2830000000	154
24.3130000000	170
24.3430000000	164
24.3730000000	146
24.4030000000	173
24.4330000000	162
24.4630000000	176
24.4930000000	173
24.5230000000	159
24.5530000000	156
24.5830000000	152
24.6130000000	179
24.6430000000	173
24.6730000000	157
24.7030000000	167
24.7330000000	149
24.7630000000	157
24.7930000000	172
24.8230000000	164
24.8530000000	178
24.8830000000	153
24.9130000000	194
24.9430000000	171
24.9730000000	171
25.0030000000	161
25.0330000000	172
25.0630000000	168
25.0930000000	185
25.1230000000	178
25.1530000000	184
25.1830000000	174
25.2130000000	152
25.2430000000	171
25.2730000000	147
25.3030000000	191
25.3330000000	167
25.3630000000	173
25.3930000000	174
25.4230000000	172
25.4530000000	175
25.4830000000	175
25.5130000000	184
25.5430000000	215
25.5730000000	246
25.6030000000	245
25.6330000000	244
25.6630000000	208
25.6930000000	172
25.7230000000	187
25.7530000000	176
25.7830000000	157
25.8130000000	163
25.8430000000	153
25.8730000000	144
25.9030000000	162
25.9330000000	147
25.9630000000	164
25.9930000000	182
26.0230000000	163
26.0530000000	163
26.0830000000	175
26.1130000000	174
26.1430000000	187
26.1730000000	179
26.2030000000	234
26.2330000000	237
26.2630000000	276
26.2930000000	406
26.3230000000	538
26.3530000000	654
26.3830000000	801
26.4130000000	794
26.4430000000	678
26.4730000000	521
26.5030000000	408
26.5330000000	309
26.5630000000	233
26.5930000000	223
26.6230000000	207
26.6530000000	195
26.6830000000	197
26.7130000000	181
26.7430000000	175
26.7730000000	176
26.8030000000	160
26.8330000000	147
26.8630000000	165
26.8930000000	161
26.9230000000	155
26.9530000000	166
26.9830000000	184
27.0130000000	166
27.0430000000	146
27.0730000000	159
27.1030000000	156
27.1330000000	148
27.1630000000	146
27.1930000000	158
27.2230000000	168
27.2530000000	142
27.2830000000	166
27.3130000000	131
27.3430000000	153
27.3730000000	166
27.4030000000	138
27.4330000000	147
27.4630000000	156
27.4930000000	157
27.5230000000	143
27.5530000000	132
27.5830000000	153
27.6130000000	138
27.6430000000	131
27.6730000000	161
27.7030000000	133
27.7330000000	155
27.7630000000	134
27.7930000000	136
27.8230000000	148
27.8530000000	159
27.8830000000	168
27.9130000000	154
27.9430000000	135
27.9730000000	128
28.0030000000	154
28.0330000000	132
28.0630000000	157
28.0930000000	160
28.1230000000	152
28.1530000000	165
28.1830000000	147
28.2130000000	154
28.2430000000	141
28.2730000000	139
28.3030000000	144
28.3330000000	150
28.3630000000	148
28.3930000000	156
28.4230000000	157
28.4530000000	161
28.4830000000	134
28.5130000000	152
28.5430000000	172
28.5730000000	156
28.6030000000	161
28.6330000000	164
28.6630000000	164
28.6930000000	146
28.7230000000	144
28.7530000000	173
28.7830000000	151
28.8130000000	173
28.8430000000	162
28.8730000000	161
28.9030000000	120
28.9330000000	149
28.9630000000	145
28.9930000000	150
29.0230000000	145
29.0530000000	137
29.0830000000	145
29.1130000000	141
29.1430000000	142
29.1730000000	136
29.2030000000	133
29.2330000000	137
29.2630000000	153
29.2930000000	139
29.3230000000	134
29.3530000000	119
29.3830000000	128
29.4130000000	159
29.4430000000	140
29.4730000000	147
29.5030000000	131
29.5330000000	120
29.5630000000	135
29.5930000000	141
29.6230000000	146
29.6530000000	116
29.6830000000	137
29.7130000000	147
29.7430000000	140
29.7730000000	147
29.8030000000	147
29.8330000000	122
29.8630000000	143
29.8930000000	153
29.9230000000	140
29.9530000000	125
29.9830000000	133
30.0130000000	139
30.0430000000	151
30.0730000000	174
30.1030000000	159
30.1330000000	179
30.1630000000	206
30.1930000000	284
30.2230000000	370
30.2530000000	434
30.2830000000	667
30.3130000000	843
30.3430000000	1029
30.3730000000	1133
30.4030000000	1012
30.4330000000	846
30.4630000000	652
30.4930000000	479
30.5230000000	306
30.5530000000	267
30.5830000000	224
30.6130000000	188
30.6430000000	158
30.6730000000	137
30.7030000000	141
30.7330000000	133
30.7630000000	131
30.7930000000	124
30.8230000000	141
30.8530000000	157
30.8830000000	105
30.9130000000	105
30.9430000000	145
30.9730000000	140
31.0030000000	134
31.0330000000	120
31.0630000000	142
31.0930000000	118
31.1230000000	145
31.1530000000	144
31.1830000000	135
31.2130000000	147
31.2430000000	124
31.2730000000	133
31.3030000000	153
31.3330000000	123
31.3630000000	139
31.3930000000	119
31.4230000000	129
31.4530000000	138
31.4830000000	127
31.5130000000	138
31.5430000000	145
31.5730000000	136
31.6030000000	144
31.6330000000	163
31.6630000000	200
31.6930000000	238
31.7230000000	263
31.7530000000	336
31.7830000000	425
31.8130000000	558
31.8430000000	633
31.8730000000	644
31.9030000000	573
31.9330000000	550
31.9630000000	493
31.9930000000	537
32.0230000000	536
32.0530000000	572
32.0830000000	646
32.1130000000	576
32.1430000000	443
32.1730000000	372
32.2030000000	285
32.2330000000	220
32.2630000000	180
32.2930000000	160
32.3230000000	122
32.3530000000	134
32.3830000000	139
32.4130000000	131
32.4430000000	120
32.4730000000	105
32.5030000000	127
32.5330000000	128
32.5630000000	118
32.5930000000	118
32.6230000000	110
32.6530000000	127
32.6830000000	113
32.7130000000	115
32.7430000000	122
32.7730000000	108
32.8030000000	125
32.8330000000	134
32.8630000000	135
32.8930000000	124
32.9230000000	134
32.9530000000	139
32.9830000000	136
33.0130000000	167
33.0430000000	203
33.0730000000	242
33.1030000000	339
33.1330000000	480
33.1630000000	716
33.1930000000	1113
33.2230000000	1639
33.2530000000	2125
33.2830000000	2302
33.3130000000	1890
33.3430000000	1275
33.3730000000	839
33.4030000000	531
33.4330000000	354
33.4630000000	262
33.4930000000	195
33.5230000000	154
33.5530000000	142
33.5830000000	126
33.6130000000	136
33.6430000000	153
33.6730000000	144
33.7030000000	127
33.7330000000	109
33.7630000000	111
33.7930000000	112
33.8230000000	119
33.8530000000	135
33.8830000000	110
33.9130000000	97
33.9430000000	122
33.9730000000	116
34.0030000000	110
34.0330000000	108
34.0630000000	135
34.0930000000	119
34.1230000000	110
34.1530000000	109
34.1830000000	113
34.2130000000	123
34.2430000000	113
34.2730000000	98
34.3030000000	93
34.3330000000	117
34.3630000000	127
34.3930000000	102
34.4230000000	102
34.4530000000	108
34.4830000000	117
34.5130000000	111
34.5430000000	122
34.5730000000	114
34.6030000000	103
34.6330000000	114
34.6630000000	114
34.6930000000	104
34.7230000000	116
34.7530000000	90
34.7830000000	103
34.8130000000	116
34.8430000000	107
34.8730000000	96
34.9030000000	89
34.9330000000	99
34.9630000000	105
34.9930000000	108
35.0230000000	122
35.0530000000	105
35.0830000000	100
35.1130000000	119
35.1430000000	129
35.1730000000	143
35.2030000000	183
35.2330000000	181
35.2630000000	222
35.2930000000	212
35.3230000000	194
35.3530000000	204
35.3830000000	189
35.4130000000	155
35.4430000000	129
35.4730000000	123
35.5030000000	129
35.5330000000	114
35.5630000000	108
35.5930000000	102
35.6230000000	95
35.6530000000	103
35.6830000000	105
35.7130000000	108
35.7430000000	96
35.7730000000	92
35.8030000000	97
35.8330000000	104
35.8630000000	111
35.8930000000	85
35.9230000000	88
35.9530000000	95
35.9830000000	95
36.0130000000	96
36.0430000000	107
36.0730000000	97
36.1030000000	89
36.1330000000	100
36.1630000000	117
36.1930000000	109
36.2230000000	105
36.2530000000	103
36.2830000000	104
36.3130000000	104
36.3430000000	120
36.3730000000	132
36.4030000000	136
36.4330000000	165
36.4630000000	192
36.4930000000	202
36.5230000000	244
36.5530000000	265
36.5830000000	275
36.6130000000	291
36.6430000000	281
36.6730000000	262
36.7030000000	216
36.7330000000	180
36.7630000000	142
36.7930000000	114
36.8230000000	93
36.8530000000	87
36.8830000000	107
36.9130000000	94
36.9430000000	92
36.9730000000	95
37.0030000000	80
37.0330000000	95
37.0630000000	100
37.0930000000	85
37.1230000000	89
37.1530000000	88
37.1830000000	85
37.2130000000	92
37.2430000000	74
37.2730000000	81
37.3030000000	76
37.3330000000	82
37.3630000000	88
37.3930000000	95
37.4230000000	80
37.4530000000	85
37.4830000000	79
37.5130000000	87
37.5430000000	90
37.5730000000	105
37.6030000000	91
37.6330000000	99
37.6630000000	98
37.6930000000	95
37.7230000000	74
37.7530000000	81
37.7830000000	86
37.8130000000	78
37.8430000000	79
37.8730000000	99
37.9030000000	104
37.9330000000	86
37.9630000000	85
37.9930000000	96
38.0230000000	80
38.0530000000	79
38.0830000000	82
38.1130000000	84
38.1430000000	97
38.1730000000	95
38.2030000000	93
38.2330000000	95
38.2630000000	101
38.2930000000	82
38.3230000000	79
38.3530000000	95
38.3830000000	87
38.4130000000	90
38.4430000000	90
38.4730000000	79
38.5030000000	78
38.5330000000	87
38.5630000000	87
38.5930000000	81
38.6230000000	91
38.6530000000	85
38.6830000000	80
38.7130000000	86
38.7430000000	95
38.7730000000	85
38.8030000000	79
38.8330000000	95
38.8630000000	94
38.8930000000	84
38.9230000000	80
38.9530000000	85
38.9830000000	96
39.0130000000	93
39.0430000000	83
39.0730000000	92
39.1030000000	72
39.1330000000	102
39.1630000000	106
39.1930000000	93
39.2230000000	95
39.2530000000	93
39.2830000000	100
39.3130000000	91
39.3430000000	74
39.3730000000	105
39.4030000000	103
39.4330000000	102
39.4630000000	107
39.4930000000	114
39.5230000000	112
39.5530000000	144
39.5830000000	187
39.6130000000	240
39.6430000000	290
39.6730000000	376
39.7030000000	409
39.7330000000	409
39.7630000000	362
39.7930000000	270
39.8230000000	242
39.8530000000	185
39.8830000000	157
39.9130000000	140
39.9430000000	100
39.9730000000	99
40.0030000000	77
40.0330000000	101
40.0630000000	102
40.0930000000	90
40.1230000000	98
40.1530000000	98
40.1830000000	91
40.2130000000	74
40.2430000000	87
40.2730000000	97
40.3030000000	92
40.3330000000	78
40.3630000000	100
40.3930000000	85
40.4230000000	98
40.4530000000	93
40.4830000000	79
40.5130000000	91
40.5430000000	84
40.5730000000	78
40.6030000000	95
40.6330000000	98
40.6630000000	73
40.6930000000	84
40.7230000000	111
40.7530000000	94
40.7830000000	99
40.8130000000	111
40.8430000000	95
40.8730000000	98
40.9030000000	124
40.9330000000	112
40.9630000000	141
40.9930000000	115
41.0230000000	149
41.0530000000	132
41.0830000000	159
41.1130000000	120
41.1430000000	107
41.1730000000	87
41.2030000000	98
41.2330000000	92
41.2630000000	91
41.2930000000	97
41.3230000000	98
41.3530000000	87
41.3830000000	84
41.4130000000	106
41.4430000000	97
41.4730000000	88
41.5030000000	102
41.5330000000	95
41.5630000000	89
41.5930000000	92
41.6230000000	96
41.6530000000	86
41.6830000000	82
41.7130000000	84
41.7430000000	68
41.7730000000	84
41.8030000000	77
41.8330000000	87
41.8630000000	88
41.8930000000	82
41.9230000000	83
41.9530000000	82
41.9830000000	93
42.0130000000	84
42.0430000000	86
42.0730000000	94
42.1030000000	93
42.1330000000	94
42.1630000000	92
42.1930000000	82
42.2230000000	95
42.2530000000	102
42.2830000000	118
42.3130000000	119
42.3430000000	140
42.3730000000	186
42.4030000000	200
42.4330000000	192
42.4630000000	233
42.4930000000	247
42.5230000000	261
42.5530000000	279
42.5830000000	253
42.6130000000	236
42.6430000000	192
42.6730000000	146
42.7030000000	130
42.7330000000	99
42.7630000000	90
42.7930000000	111
42.8230000000	101
42.8530000000	105
42.8830000000	113
42.9130000000	133
42.9430000000	133
42.9730000000	172
43.0030000000	234
43.0330000000	332
43.0630000000	468
43.0930000000	482
43.1230000000	576
43.1530000000	625
43.1830000000	500
43.2130000000	447
43.2430000000	328
43.2730000000	263
43.3030000000	201
43.3330000000	141
43.3630000000	118
43.3930000000	119
43.4230000000	100
43.4530000000	78
43.4830000000	90
43.5130000000	99
43.5430000000	95
43.5730000000	86
43.6030000000	97
43.6330000000	95
43.6630000000	106
43.6930000000	97
43.7230000000	104
43.7530000000	102
43.7830000000	88
43.8130000000	78
43.8430000000	91
43.8730000000	84
43.9030000000	105
43.9330000000	77
43.9630000000	104
43.9930000000	96
44.0230000000	76
44.0530000000	87
44.0830000000	72
44.1130000000	70
44.1430000000	91
44.1730000000	81
44.2030000000	82
44.2330000000	79
44.2630000000	80
44.2930000000	83
44.3230000000	105
44.3530000000	95
44.3830000000	80
44.4130000000	96
44.4430000000	81
44.4730000000	76
44.5030000000	79
44.5330000000	96
44.5630000000	80
44.5930000000	103
44.6230000000	94
44.6530000000	80
44.6830000000	81
44.7130000000	98
44.7430000000	109
44.7730000000	121
44.8030000000	124
44.8330000000	165
44.8630000000	197
44.8930000000	268
44.9230000000	331
44.9530000000	427
44.9830000000	602
45.0130000000	764
45.0430000000	796
45.0730000000	706
45.1030000000	597
45.1330000000	469
45.1630000000	360
45.1930000000	260
45.2230000000	172
45.2530000000	127
45.2830000000	104
45.3130000000	105
45.3430000000	101
45.3730000000	102
45.4030000000	71
45.4330000000	79
45.4630000000	74
45.4930000000	75
45.5230000000	81
45.5530000000	79
45.5830000000	82
45.6130000000	66
45.6430000000	67
45.6730000000	82
45.7030000000	77
45.7330000000	78
45.7630000000	88
45.7930000000	87
45.8230000000	83
45.8530000000	76
45.8830000000	76
45.9130000000	87
45.9430000000	95
45.9730000000	128
46.0030000000	110
46.0330000000	156
46.0630000000	139
46.0930000000	147
46.1230000000	116
46.1530000000	111
46.1830000000	103
46.2130000000	98
46.2430000000	81
46.2730000000	87
46.3030000000	75
46.3330000000	75
46.3630000000	81
46.3930000000	105
46.4230000000	82
46.4530000000	119
46.4830000000	106
46.5130000000	101
46.5430000000	101
46.5730000000	93
46.6030000000	86
46.6330000000	64
46.6630000000	81
46.6930000000	77
46.7230000000	110
46.7530000000	103
46.7830000000	117
46.8130000000	130
46.8430000000	174
46.8730000000	230
46.9030000000	249
46.9330000000	253
46.9630000000	226
46.9930000000	207
47.0230000000	185
47.0530000000	140
47.0830000000	117
47.1130000000	108
47.1430000000	76
47.1730000000	94
47.2030000000	70
47.2330000000	76
47.2630000000	80
47.2930000000	78
47.3230000000	87
47.3530000000	79
47.3830000000	81
47.4130000000	80
47.4430000000	82
47.4730000000	89
47.5030000000	102
47.5330000000	100
47.5630000000	75
47.5930000000	68
47.6230000000	71
47.6530000000	91
47.6830000000	70
47.7130000000	70
47.7430000000	72
47.7730000000	69
47.8030000000	62
47.8330000000	59
47.8630000000	63
47.8930000000	56
47.9230000000	63
47.9530000000	71
47.9830000000	55
48.0130000000	67
48.0430000000	65
48.0730000000	65
48.1030000000	44
48.1330000000	63
48.1630000000	58
48.1930000000	62
48.2230000000	63
48.2530000000	66
48.2830000000	65
48.3130000000	62
48.3430000000	62
48.3730000000	74
48.4030000000	72
48.4330000000	60
48.4630000000	78
48.4930000000	65
48.5230000000	70
48.5530000000	64
48.5830000000	67
48.6130000000	68
48.6430000000	54
48.6730000000	65
48.7030000000	54
48.7330000000	62
48.7630000000	64
48.7930000000	63
48.8230000000	57
48.8530000000	59
48.8830000000	67
48.9130000000	55
48.9430000000	59
48.9730000000	61
49.0030000000	63
49.0330000000	70
49.0630000000	47
49.0930000000	54
49.1230000000	66
49.1530000000	64
49.1830000000	54
49.2130000000	61
49.2430000000	65
49.2730000000	65
49.3030000000	58
49.3330000000	50
49.3630000000	58
49.3930000000	69
49.4230000000	73
49.4530000000	50
49.4830000000	49
49.5130000000	55
49.5430000000	56
49.5730000000	64
49.6030000000	43
49.6330000000	63
49.6630000000	62
49.6930000000	65
49.7230000000	61
49.7530000000	55
49.7830000000	64
49.8130000000	56
49.8430000000	61
49.8730000000	64
49.9030000000	64
49.9330000000	70
49.9630000000	65
49.9930000000	39
50.0230000000	69
50.0530000000	71
50.0830000000	61
50.1130000000	70
50.1430000000	49
50.1730000000	52
50.2030000000	69
50.2330000000	66
50.2630000000	84
50.2930000000	63
50.3230000000	66
50.3530000000	74
50.3830000000	64
50.4130000000	65
50.4430000000	65
50.4730000000	64
50.5030000000	84
50.5330000000	72
50.5630000000	57
50.5930000000	73
50.6230000000	75
50.6530000000	57
50.6830000000	56
50.7130000000	56
50.7430000000	50
50.7730000000	55
50.8030000000	57
50.8330000000	59
50.8630000000	62
50.8930000000	55
50.9230000000	67
50.9530000000	55
50.9830000000	52
51.0130000000	57
51.0430000000	48
51.0730000000	53
51.1030000000	54
51.1330000000	71
51.1630000000	58
51.1930000000	40
51.2230000000	49
51.2530000000	58
51.2830000000	54
51.3130000000	45
51.3430000000	61
51.3730000000	61
51.4030000000	54
51.4330000000	64
51.4630000000	65
51.4930000000	54
51.5230000000	53
51.5530000000	59
51.5830000000	58
51.6130000000	43
51.6430000000	39
51.6730000000	50
51.7030000000	48
51.7330000000	61
51.7630000000	53
51.7930000000	47
51.8230000000	67
51.8530000000	60
51.8830000000	59
51.9130000000	52
51.9430000000	55
51.9730000000	53
52.0030000000	71
52.0330000000	64
52.0630000000	65
52.0930000000	63
52.1230000000	74
52.1530000000	64
52.1830000000	74
52.2130000000	65
52.2430000000	56
52.2730000000	66
52.3030000000	61
52.3330000000	50
52.3630000000	57
52.3930000000	58
52.4230000000	42
52.4530000000	67
52.4830000000	66
52.5130000000	60
52.5430000000	72
52.5730000000	76
52.6030000000	78
52.6330000000	86
52.6630000000	58
52.6930000000	85
52.7230000000	66
52.7530000000	67
52.7830000000	45
52.8130000000	62
52.8430000000	55
52.8730000000	60
52.9030000000	63
52.9330000000	45
52.9630000000	57
52.9930000000	66
53.0230000000	60
53.0530000000	57
53.0830000000	42
53.1130000000	36
53.1430000000	50
53.1730000000	54
53.2030000000	63
53.2330000000	58
53.2630000000	53
53.2930000000	50
53.3230000000	58
53.3530000000	63
53.3830000000	55
53.4130000000	60
53.4430000000	55
53.4730000000	49
53.5030000000	51
53.5330000000	68
53.5630000000	51
53.5930000000	54
53.6230000000	49
53.6530000000	62
53.6830000000	65
53.7130000000	70
53.7430000000	76
53.7730000000	111
53.8030000000	123
53.8330000000	106
53.8630000000	113
53.8930000000	121
53.9230000000	99
53.9530000000	103
53.9830000000	95
54.0130000000	70
54.0430000000	59
54.0730000000	66
54.1030000000	70
54.1330000000	51
54.1630000000	50
54.1930000000	60
54.2230000000	61
54.2530000000	51
54.2830000000	72
54.3130000000	68
54.3430000000	61
54.3730000000	52
54.4030000000	52
54.4330000000	49
54.4630000000	51
54.4930000000	57
54.5230000000	61
54.5530000000	60
54.5830000000	53
54.6130000000	50
54.6430000000	50
54.6730000000	51
54.7030000000	53
54.7330000000	66
54.7630000000	54
54.7930000000	72
54.8230000000	80
54.8530000000	78
54.8830000000	93
54.9130000000	73
54.9430000000	84
54.9730000000	84
55.0030000000	67
55.0330000000	74
55.0630000000	67
55.0930000000	53
55.1230000000	65
55.1530000000	57
55.1830000000	67
55.2130000000	57
55.2430000000	70
55.2730000000	64
55.3030000000	55
55.3330000000	90
55.3630000000	84
55.3930000000	113
55.4230000000	88
55.4530000000	103
55.4830000000	95
55.5130000000	78
55.5430000000	90
55.5730000000	71
55.6030000000	71
55.6330000000	65
55.6630000000	55
55.6930000000	50
55.7230000000	54
55.7530000000	57
55.7830000000	53
55.8130000000	42
55.8430000000	49
55.8730000000	53
55.9030000000	58
55.9330000000	54
55.9630000000	46
55.9930000000	50
56.0230000000	58
56.0530000000	49
56.0830000000	61
56.1130000000	55
56.1430000000	49
56.1730000000	45
56.2030000000	47
56.2330000000	51
56.2630000000	44
56.2930000000	56
56.3230000000	52
56.3530000000	57
56.3830000000	49
56.4130000000	50
56.4430000000	44
56.4730000000	55
56.5030000000	49
56.5330000000	46
56.5630000000	53
56.5930000000	51
56.6230000000	53
56.6530000000	56
56.6830000000	47
56.7130000000	45
56.7430000000	65
56.7730000000	48
56.8030000000	49
56.8330000000	39
56.8630000000	36
56.8930000000	39
56.9230000000	51
56.9530000000	61
56.9830000000	52
57.0130000000	62
57.0430000000	51
57.0730000000	53
57.1030000000	46
57.1330000000	48
57.1630000000	62
57.1930000000	52
57.2230000000	60
57.2530000000	60
57.2830000000	60
57.3130000000	48
57.3430000000	53
57.3730000000	53
57.4030000000	42
57.4330000000	46
57.4630000000	48
57.4930000000	49
57.5230000000	60
57.5530000000	48
57.5830000000	38
57.6130000000	53
57.6430000000	52
57.6730000000	41
57.7030000000	56
57.7330000000	63
57.7630000000	48
57.7930000000	48
57.8230000000	48
57.8530000000	57
57.8830000000	42
57.9130000000	64
57.9430000000	36
57.9730000000	51
58.0030000000	55
58.0330000000	52
58.0630000000	41
58.0930000000	38
58.1230000000	42
58.1530000000	61
58.1830000000	40
58.2130000000	52
58.2430000000	60
58.2730000000	52
58.3030000000	56
58.3330000000	59
58.3630000000	50
58.3930000000	35
58.4230000000	38
58.4530000000	52
58.4830000000	33
58.5130000000	45
58.5430000000	56
58.5730000000	45
58.6030000000	39
58.6330000000	43
58.6630000000	50
58.6930000000	26
58.7230000000	50
58.7530000000	49
58.7830000000	47
58.8130000000	60
58.8430000000	44
58.8730000000	42
58.9030000000	45
58.9330000000	41
58.9630000000	62
58.9930000000	41
59.0230000000	50
59.0530000000	42
59.0830000000	44
59.1130000000	34
59.1430000000	49
59.1730000000	46
59.2030000000	39
59.2330000000	48
59.2630000000	46
59.2930000000	47
59.3230000000	49
59.3530000000	44
59.3830000000	50
59.4130000000	45
59.4430000000	46
59.4730000000	63
59.5030000000	65
59.5330000000	51
59.5630000000	58
59.5930000000	52
59.6230000000	53
59.6530000000	51
59.6830000000	52
59.7130000000	43
59.7430000000	51
59.7730000000	42
59.8030000000	46
59.8330000000	51
59.8630000000	56
59.8930000000	57
59.9230000000	50
59.9530000000	65
59.9830000000	41
60.0130000000	61
60.0430000000	60
60.0730000000	57
60.1030000000	82
60.1330000000	72
60.1630000000	95
60.1930000000	84
60.2230000000	77
60.2530000000	75
60.2830000000	81
60.3130000000	76
60.3430000000	77
60.3730000000	47
60.4030000000	57
60.4330000000	63
60.4630000000	54
60.4930000000	55
60.5230000000	59
60.5530000000	67
60.5830000000	56
60.6130000000	57
60.6430000000	48
60.6730000000	52
60.7030000000	47
60.7330000000	48
60.7630000000	49
60.7930000000	53
60.8230000000	42
60.8530000000	38
60.8830000000	49
60.9130000000	46
60.9430000000	51
60.9730000000	37
61.0030000000	46
61.0330000000	55
61.0630000000	53
61.0930000000	52
61.1230000000	51
61.1530000000	47
61.1830000000	54
61.2130000000	60
61.2430000000	51
61.2730000000	41
61.3030000000	53
61.3330000000	52
61.3630000000	59
61.3930000000	49
61.4230000000	57
61.4530000000	58
61.4830000000	86
61.5130000000	72
61.5430000000	73
61.5730000000	69
61.6030000000	88
61.6330000000	67
61.6630000000	68
61.6930000000	73
61.7230000000	60
61.7530000000	46
61.7830000000	53
61.8130000000	49
61.8430000000	49
61.8730000000	34
61.9030000000	49
61.9330000000	35
61.9630000000	40
61.9930000000	42
62.0230000000	42
62.0530000000	53
62.0830000000	51
62.1130000000	47
62.1430000000	50
62.1730000000	48
62.2030000000	35
62.2330000000	50
62.2630000000	42
62.2930000000	39
62.3230000000	60
62.3530000000	47
62.3830000000	52
62.4130000000	53
62.4430000000	53
62.4730000000	50
62.5030000000	61
62.5330000000	43
62.5630000000	42
62.5930000000	47
62.6230000000	48
62.6530000000	42
62.6830000000	45
62.7130000000	40
62.7430000000	47
62.7730000000	51
62.8030000000	44
62.8330000000	48
62.8630000000	45
62.8930000000	41
62.9230000000	52
62.9530000000	58
62.9830000000	54
63.0130000000	53
63.0430000000	47
63.0730000000	47
63.1030000000	47
63.1330000000	42
63.1630000000	46
63.1930000000	49
63.2230000000	53
63.2530000000	53
63.2830000000	57
63.3130000000	62
63.3430000000	49
63.3730000000	37
63.4030000000	42
63.4330000000	49
63.4630000000	50
63.4930000000	55
63.5230000000	29
63.5530000000	39
63.5830000000	42
63.6130000000	47
63.6430000000	39
63.6730000000	38
63.7030000000	53
63.7330000000	44
63.7630000000	42
63.7930000000	49
63.8230000000	52
63.8530000000	49
63.8830000000	39
63.9130000000	48
63.9430000000	43
63.9730000000	56
64.0030000000	53
64.0330000000	52
64.0630000000	54
64.0930000000	58
64.1230000000	54
64.1530000000	37
64.1830000000	50
64.2130000000	52
64.2430000000	53
64.2730000000	45
64.3030000000	39
64.3330000000	48
64.3630000000	39
64.3930000000	41
64.4230000000	36
64.4530000000	28
64.4830000000	52
64.5130000000	62
64.5430000000	53
64.5730000000	53
64.6030000000	48
64.6330000000	51
64.6630000000	55
64.6930000000	49
64.7230000000	48
64.7530000000	48
64.7830000000	50
64.8130000000	44
64.8430000000	40
64.8730000000	41
64.9030000000	51
64.9330000000	51
64.9630000000	51
64.9930000000	50
65.0230000000	47
65.0530000000	42
65.0830000000	56
65.1130000000	53
65.1430000000	48
65.1730000000	44
65.2030000000	44
65.2330000000	52
65.2630000000	52
65.2930000000	33
65.3230000000	49
65.3530000000	47
65.3830000000	48
65.4130000000	39
65.4430000000	48
65.4730000000	49
65.5030000000	40
65.5330000000	51
65.5630000000	52
65.5930000000	50
65.6230000000	58
65.6530000000	43
65.6830000000	40
65.7130000000	44
65.7430000000	47
65.7730000000	56
65.8030000000	42
65.8330000000	39
65.8630000000	41
65.8930000000	39
65.9230000000	55
65.9530000000	43
65.9830000000	43
66.0130000000	68
66.0430000000	71
66.0730000000	83
66.1030000000	90
66.1330000000	116
66.1630000000	103
66.1930000000	98
66.2230000000	90
66.2530000000	99
66.2830000000	77
66.3130000000	82
66.3430000000	98
66.3730000000	72
66.4030000000	64
66.4330000000	46
66.4630000000	51
66.4930000000	47
66.5230000000	48
66.5530000000	51
66.5830000000	48
66.6130000000	45
66.6430000000	43
66.6730000000	39
66.7030000000	35
66.7330000000	44
66.7630000000	41
66.7930000000	37
66.8230000000	43
66.8530000000	44
66.8830000000	43
66.9130000000	46
66.9430000000	45
66.9730000000	59
67.0030000000	44
67.0330000000	37
67.0630000000	52
67.0930000000	45
67.1230000000	43
67.1530000000	45
67.1830000000	52
67.2130000000	55
67.2430000000	43
67.2730000000	51
67.3030000000	55
67.3330000000	45
67.3630000000	45
67.3930000000	49
67.4230000000	42
67.4530000000	38
67.4830000000	47
67.5130000000	42
67.5430000000	52
67.5730000000	41
67.6030000000	35
67.6330000000	47
67.6630000000	38
67.6930000000	46
67.7230000000	43
67.7530000000	46
67.7830000000	48
67.8130000000	40
67.8430000000	39
67.8730000000	47
67.9030000000	44
67.9330000000	39
67.9630000000	47
67.9930000000	40
68.0230000000	44
68.0530000000	53
68.0830000000	47
68.1130000000	47
68.1430000000	51
68.1730000000	39
68.2030000000	45
68.2330000000	38
68.2630000000	41
68.2930000000	51
68.3230000000	48
68.3530000000	35
68.3830000000	33
68.4130000000	43
68.4430000000	25
68.4730000000	46
68.5030000000	41
68.5330000000	32
68.5630000000	51
68.5930000000	52
68.6230000000	44
68.6530000000	34
68.6830000000	37
68.7130000000	45
68.7430000000	45
68.7730000000	49
68.8030000000	58
68.8330000000	37
68.8630000000	44
68.8930000000	51
68.9230000000	60
68.9530000000	41
68.9830000000	52
69.0130000000	41
69.0430000000	41
69.0730000000	48
69.1030000000	56
69.1330000000	62
69.1630000000	57
69.1930000000	44
69.2230000000	48
69.2530000000	42
69.2830000000	43
69.3130000000	57
69.3430000000	57
69.3730000000	39
69.4030000000	41
69.4330000000	38
69.4630000000	45
69.4930000000	40
69.5230000000	36
69.5530000000	41
69.5830000000	33
69.6130000000	38
69.6430000000	36
69.6730000000	35
69.7030000000	41
69.7330000000	51
69.7630000000	50
69.7930000000	46
69.8230000000	44
69.8530000000	41
69.8830000000	50
69.9130000000	44
69.9430000000	48
69.9730000000	54
70.0030000000	43
70.0330000000	41
70.0630000000	45
70.0930000000	37
70.1230000000	39
70.1530000000	36
70.1830000000	51
70.2130000000	43
70.2430000000	44
70.2730000000	33
70.3030000000	43
70.3330000000	35
70.3630000000	42
70.3930000000	51
70.4230000000	43
70.4530000000	38
70.4830000000	53
70.5130000000	47
70.5430000000	37
70.5730000000	54
70.6030000000	51
70.6330000000	42
70.6630000000	52
70.6930000000	55
70.7230000000	44
70.7530000000	44
70.7830000000	46
70.8130000000	52
70.8430000000	52
70.8730000000	40
70.9030000000	42
70.9330000000	51
70.9630000000	44
70.9930000000	39
71.0230000000	34
71.0530000000	32
71.0830000000	33
71.1130000000	39
71.1430000000	42
71.1730000000	36
71.2030000000	40
71.2330000000	49
71.2630000000	43
71.2930000000	39
71.3230000000	50
71.3530000000	49
71.3830000000	36
71.4130000000	33
71.4430000000	38
71.4730000000	40
71.5030000000	48
71.5330000000	46
71.5630000000	50
71.5930000000	37
71.6230000000	35
71.6530000000	32
71.6830000000	39
71.7130000000	37
71.7430000000	42
71.7730000000	49
71.8030000000	65
71.8330000000	49
71.8630000000	58
71.8930000000	44
71.9230000000	66
71.9530000000	47
71.9830000000	53
72.0130000000	56
72.0430000000	74
72.0730000000	54
72.1030000000	78
72.1330000000	79
72.1630000000	77
72.1930000000	90
72.2230000000	78
72.2530000000	58
72.2830000000	74
72.3130000000	70
72.3430000000	80
72.3730000000	79
72.4030000000	54
72.4330000000	51
72.4630000000	56
72.4930000000	65
72.5230000000	52
72.5530000000	62
72.5830000000	44
72.6130000000	50
72.6430000000	64
72.6730000000	80
72.7030000000	90
72.7330000000	95
72.7630000000	86
72.7930000000	81
72.8230000000	90
72.8530000000	99
72.8830000000	99
72.9130000000	80
72.9430000000	88
72.9730000000	64
73.0030000000	64
73.0330000000	61
73.0630000000	62
73.0930000000	68
73.1230000000	42
73.1530000000	41
73.1830000000	48
73.2130000000	51
73.2430000000	46
73.2730000000	54
73.3030000000	51
73.3330000000	48
73.3630000000	51
73.3930000000	45
73.4230000000	37
73.4530000000	41
73.4830000000	42
73.5130000000	35
73.5430000000	38
73.5730000000	41
73.6030000000	44
73.6330000000	52
73.6630000000	46
73.6930000000	43
73.7230000000	54
73.7530000000	56
73.7830000000	49
73.8130000000	34
73.8430000000	33
73.8730000000	34
73.9030000000	41
73.9330000000	56
73.9630000000	42
73.9930000000	52
74.0230000000	42
74.0530000000	43
74.0830000000	57
74.1130000000	30
74.1430000000	38
74.1730000000	31
74.2030000000	45
74.2330000000	49
74.2630000000	43
74.2930000000	34
74.3230000000	42
74.3530000000	47
74.3830000000	38
74.4130000000	52
74.4430000000	49
74.4730000000	50
74.5030000000	39
74.5330000000	49
74.5630000000	64
74.5930000000	47
74.6230000000	41
74.6530000000	44
74.6830000000	47
74.7130000000	48
74.7430000000	40
74.7730000000	36
74.8030000000	49
74.8330000000	41
74.8630000000	46
74.8930000000	38
74.9230000000	42
74.9530000000	51
74.9830000000	48
75.0130000000	44
75.0430000000	56
75.0730000000	52
75.1030000000	48
75.1330000000	45
75.1630000000	34
75.1930000000	55
75.2230000000	41
75.2530000000	53
75.2830000000	49
75.3130000000	41
75.3430000000	48
75.3730000000	50
75.4030000000	45
75.4330000000	44
75.4630000000	41
75.4930000000	39
75.5230000000	52
75.5530000000	51
75.5830000000	49
75.6130000000	62
75.6430000000	91
75.6730000000	110
75.7030000000	113
75.7330000000	139
75.7630000000	165
75.7930000000	150
75.8230000000	134
75.8530000000	109
75.8830000000	83
75.9130000000	115
75.9430000000	93
75.9730000000	79
76.0030000000	77
76.0330000000	59
76.0630000000	53
76.0930000000	53
76.1230000000	43
76.1530000000	41
76.1830000000	41
76.2130000000	32
76.2430000000	50
76.2730000000	49
76.3030000000	41
76.3330000000	42
76.3630000000	43
76.3930000000	41
76.4230000000	33
76.4530000000	49
76.4830000000	51
76.5130000000	46
76.5430000000	39
76.5730000000	34
76.6030000000	40
76.6330000000	37
76.6630000000	42
76.6930000000	40
76.7230000000	44
76.7530000000	33
76.7830000000	44
76.8130000000	48
76.8430000000	48
76.8730000000	40
76.9030000000	41
76.9330000000	51
76.9630000000	50
76.9930000000	48
77.0230000000	46
77.0530000000	45
77.0830000000	49
77.1130000000	55
77.1430000000	42
77.1730000000	34
77.2030000000	40
77.2330000000	46
77.2630000000	48
77.2930000000	41
77.3230000000	48
77.3530000000	44
77.3830000000	37
77.4130000000	64
77.4430000000	60
77.4730000000	76
77.5030000000	54
77.5330000000	68
77.5630000000	54
77.5930000000	51
77.6230000000	52
77.6530000000	54
77.6830000000	45
77.7130000000	52
77.7430000000	44
77.7730000000	48
77.8030000000	51
77.8330000000	39
77.8630000000	47
77.8930000000	50
77.9230000000	42
77.9530000000	45
77.9830000000	41
78.0130000000	39
78.0430000000	38
78.0730000000	32
78.1030000000	36
78.1330000000	43
78.1630000000	42
78.1930000000	41
78.2230000000	39
78.2530000000	51
78.2830000000	43
78.3130000000	36
78.3430000000	40
78.3730000000	35
78.4030000000	55
78.4330000000	49
78.4630000000	47
78.4930000000	47
78.5230000000	48
78.5530000000	37
78.5830000000	48
78.6130000000	48
78.6430000000	54
78.6730000000	47
78.7030000000	49
78.7330000000	49
78.7630000000	41
78.7930000000	54
78.8230000000	41
78.8530000000	44
78.8830000000	44
78.9130000000	42
78.9430000000	49
78.9730000000	41
79.0030000000	29
79.0330000000	36
79.0630000000	41
79.0930000000	39
79.1230000000	34
79.1530000000	34
79.1830000000	41
79.2130000000	43
79.2430000000	44
79.2730000000	38
79.3030000000	42
79.3330000000	29
79.3630000000	37
79.3930000000	34
79.4230000000	52
79.4530000000	32
79.4830000000	42
79.5130000000	38
79.5430000000	34
79.5730000000	38
79.6030000000	33
79.6330000000	37
79.6630000000	41
79.6930000000	32
79.7230000000	39
79.7530000000	35
79.7830000000	47
79.8130000000	48
79.8430000000	47
79.8730000000	42
79.9030000000	47
79.9330000000	39
79.9630000000	40
79.9930000000	39
80.0230000000	38
80.0530000000	39
80.0830000000	44
80.1130000000	44
80.1430000000	27
80.1730000000	35
80.2030000000	44
80.2330000000	44
80.2630000000	42
80.2930000000	39
80.3230000000	39
80.3530000000	47
80.3830000000	50
80.4130000000	39
80.4430000000	32
80.4730000000	44
80.5030000000	45
80.5330000000	38
80.5630000000	41
80.5930000000	50
80.6230000000	48
80.6530000000	38
80.6830000000	44
80.7130000000	43
80.7430000000	42
80.7730000000	44
80.8030000000	39
80.8330000000	41
80.8630000000	35
80.8930000000	46
80.9230000000	36
80.9530000000	46
80.9830000000	38
81.0130000000	55
81.0430000000	32
81.0730000000	33
81.1030000000	36
81.1330000000	39
81.1630000000	35
81.1930000000	45
81.2230000000	47
81.2530000000	44
81.2830000000	46
81.3130000000	51
81.3430000000	49
81.3730000000	41
81.4030000000	36
81.4330000000	47
81.4630000000	39
81.4930000000	37
81.5230000000	45
81.5530000000	50
81.5830000000	60
81.6130000000	32
81.6430000000	40
81.6730000000	39
81.7030000000	50
81.7330000000	39
81.7630000000	30
81.7930000000	41
81.8230000000	42
81.8530000000	31
81.8830000000	40
81.9130000000	39
81.9430000000	35
81.9730000000	42
82.0030000000	35
82.0330000000	46
82.0630000000	49
82.0930000000	45
82.1230000000	44
82.1530000000	51
82.1830000000	37
82.2130000000	39
82.2430000000	38
82.2730000000	39
82.3030000000	50
82.3330000000	40
82.3630000000	34
82.3930000000	43
82.4230000000	35
82.4530000000	28
82.4830000000	36
82.5130000000	31
82.5430000000	28
82.5730000000	39
82.6030000000	42
82.6330000000	35
82.6630000000	43
82.6930000000	35
82.7230000000	39
82.7530000000	32
82.7830000000	41
82.8130000000	49
82.8430000000	40
82.8730000000	36
82.9030000000	41
82.9330000000	45
82.9630000000	45
82.9930000000	43
83.0230000000	46
83.0530000000	51
83.0830000000	38
83.1130000000	48
83.1430000000	39
83.1730000000	38
83.2030000000	51
83.2330000000	37
83.2630000000	43
83.2930000000	54
83.3230000000	39
83.3530000000	50
83.3830000000	47
83.4130000000	41
83.4430000000	43
83.4730000000	40
83.5030000000	54
83.5330000000	38
83.5630000000	40
83.5930000000	35
83.6230000000	41
83.6530000000	44
83.6830000000	40
83.7130000000	41
83.7430000000	33
83.7730000000	37
83.8030000000	37
83.8330000000	36
83.8630000000	35
83.8930000000	31
83.9230000000	38
83.9530000000	35
83.9830000000	36
84.0130000000	37
84.0430000000	28
84.0730000000	36
84.1030000000	52
84.1330000000	39
84.1630000000	27
84.1930000000	32
84.2230000000	29
84.2530000000	32
84.2830000000	41
84.3130000000	52
84.3430000000	45
84.3730000000	48
84.4030000000	36
84.4330000000	32
84.4630000000	41
84.4930000000	38
84.5230000000	32
84.5530000000	48
84.5830000000	41
84.6130000000	45
84.6430000000	37
84.6730000000	29
84.7030000000	32
84.7330000000	55
84.7630000000	40
84.7930000000	41
84.8230000000	29
84.8530000000	45
84.8830000000	34
84.9130000000	33
84.9430000000	38
84.9730000000	36
85.0030000000	31
85.0330000000	46
85.0630000000	43
85.0930000000	25
85.1230000000	34
85.1530000000	48
85.1830000000	36
85.2130000000	31
85.2430000000	46
85.2730000000	30
85.3030000000	45
85.3330000000	31
85.3630000000	39
85.3930000000	46
85.4230000000	35
85.4530000000	35
85.4830000000	43
85.5130000000	45
85.5430000000	51
85.5730000000	38
85.6030000000	45
85.6330000000	45
85.6630000000	42
85.6930000000	39
85.7230000000	38
85.7530000000	44
85.7830000000	36
85.8130000000	36
85.8430000000	36
85.8730000000	51
85.9030000000	41
85.9330000000	44
85.9630000000	47
85.9930000000	36
86.0230000000	44
86.0530000000	36
86.0830000000	37
86.1130000000	45
86.1430000000	41
86.1730000000	44
86.2030000000	42
86.2330000000	39
86.2630000000	37
86.2930000000	36
86.3230000000	41
86.3530000000	36
86.3830000000	39
86.4130000000	28
86.4430000000	43
86.4730000000	35
86.5030000000	37
86.5330000000	36
86.5630000000	35
86.5930000000	36
86.6230000000	38
86.6530000000	36
86.6830000000	52
86.7130000000	43
86.7430000000	28
86.7730000000	35
86.8030000000	47
86.8330000000	36
86.8630000000	36
86.8930000000	43
86.9230000000	39
86.9530000000	34
86.9830000000	35
87.0130000000	42
87.0430000000	53
87.0730000000	43
87.1030000000	46
87.1330000000	35
87.1630000000	28
87.1930000000	43
87.2230000000	36
87.2530000000	39
87.2830000000	48
87.3130000000	39
87.3430000000	44
87.3730000000	41
87.4030000000	37
87.4330000000	40
87.4630000000	48
87.4930000000	35
87.5230000000	45
87.5530000000	47
87.5830000000	50
87.6130000000	33
87.6430000000	44
87.6730000000	45
87.7030000000	29
87.7330000000	39
87.7630000000	56
87.7930000000	37
87.8230000000	38
87.8530000000	33
87.8830000000	39
87.9130000000	46
87.9430000000	33
87.9730000000	35
88.0030000000	48
88.0330000000	38
88.0630000000	31
88.0930000000	30
88.1230000000	34
88.1530000000	50
88.1830000000	43
88.2130000000	43
88.2430000000	43
88.2730000000	45
88.3030000000	46
88.3330000000	37
88.3630000000	39
88.3930000000	45
88.4230000000	44
88.4530000000	28
88.4830000000	35
88.5130000000	41
88.5430000000	47
88.5730000000	30
88.6030000000	31
88.6330000000	38
88.6630000000	32
88.6930000000	39
88.7230000000	44
88.7530000000	42
88.7830000000	49
88.8130000000	47
88.8430000000	36
88.8730000000	35
88.9030000000	37
88.9330000000	44
88.9630000000	52
88.9930000000	32
89.0230000000	33
89.0530000000	36
89.0830000000	42
89.1130000000	38
89.1430000000	43
89.1730000000	46
89.2030000000	36
89.2330000000	37
89.2630000000	55
89.2930000000	55
89.3230000000	43
89.3530000000	39
89.3830000000	50
89.4130000000	55
89.4430000000	50
89.4730000000	51
89.5030000000	42
89.5330000000	32
89.5630000000	37
89.5930000000	37
89.6230000000	49
89.6530000000	48
89.6830000000	42
89.7130000000	41
89.7430000000	39
89.7730000000	45
89.8030000000	46
89.8330000000	38
89.8630000000	34
89.8930000000	40
89.9230000000	43
89.9530000000	39
89.9830000000	34
90.0130000000	43
90.0430000000	34
90.0730000000	41
90.1030000000	46
90.1330000000	41
90.1630000000	34
90.1930000000	41
90.2230000000	42
90.2530000000	32
90.2830000000	35
90.3130000000	44
90.3430000000	36
90.3730000000	40
90.4030000000	44
90.4330000000	38
90.4630000000	36
90.4930000000	38
90.5230000000	36
90.5530000000	39
90.5830000000	42
90.6130000000	36
90.6430000000	37
90.6730000000	39
90.7030000000	41
90.7330000000	32
90.7630000000	48
90.7930000000	35
90.8230000000	26
90.8530000000	50
90.8830000000	47
90.9130000000	22
90.9430000000	42
90.9730000000	58
91.0030000000	37
91.0330000000	36
91.0630000000	37
91.0930000000	36
91.1230000000	56
91.1530000000	32
91.1830000000	39
91.2130000000	41
91.2430000000	34
91.2730000000	46
91.3030000000	48
91.3330000000	38
91.3630000000	33
91.3930000000	32
91.4230000000	33
91.4530000000	38
91.4830000000	36
91.5130000000	40
91.5430000000	36
91.5730000000	37
91.6030000000	39
91.6330000000	40
91.6630000000	42
91.6930000000	39
91.7230000000	48
91.7530000000	46
91.7830000000	26
91.8130000000	32
91.8430000000	34
91.8730000000	30
91.9030000000	34
91.9330000000	53
91.9630000000	40
91.9930000000	47
92.0230000000	44
92.0530000000	36
92.0830000000	27
92.1130000000	43
92.1430000000	41
92.1730000000	46
92.2030000000	38
92.2330000000	45
92.2630000000	40
92.2930000000	37
92.3230000000	35
92.3530000000	35
92.3830000000	44
92.4130000000	31
92.4430000000	39
92.4730000000	31
92.5030000000	42
92.5330000000	37
92.5630000000	36
92.5930000000	33
92.6230000000	33
92.6530000000	55
92.6830000000	50
92.7130000000	37
92.7430000000	36
92.7730000000	42
92.8030000000	38
92.8330000000	28
92.8630000000	49
92.8930000000	48
92.9230000000	43
92.9530000000	44
92.9830000000	38
93.0130000000	40
93.0430000000	44
93.0730000000	42
93.1030000000	41
93.1330000000	39
93.1630000000	46
93.1930000000	34
93.2230000000	28
93.2530000000	38
93.2830000000	36
93.3130000000	33
93.3430000000	37
93.3730000000	42
93.4030000000	47
93.4330000000	41
93.4630000000	40
93.4930000000	41
93.5230000000	44
93.5530000000	43
93.5830000000	39
93.6130000000	29
93.6430000000	34
93.6730000000	43
93.7030000000	34
93.7330000000	36
93.7630000000	48
93.7930000000	35
93.8230000000	48
93.8530000000	46
93.8830000000	41
93.9130000000	46
93.9430000000	45
93.9730000000	46
94.0030000000	38
94.0330000000	37
94.0630000000	43
94.0930000000	40
94.1230000000	37
94.1530000000	38
94.1830000000	29
94.2130000000	18
94.2430000000	29
94.2730000000	41
94.3030000000	45
94.3330000000	34
94.3630000000	39
94.3930000000	36
94.4230000000	34
94.4530000000	42
94.4830000000	47
94.5130000000	43
94.5430000000	42
94.5730000000	41
94.6030000000	32
94.6330000000	35
94.6630000000	42
94.6930000000	47
94.7230000000	52
94.7530000000	44
94.7830000000	48
94.8130000000	55
94.8430000000	50
94.8730000000	42
94.9030000000	54
94.9330000000	50
94.9630000000	39
94.9930000000	44
95.0230000000	45
95.0530000000	42
95.0830000000	53
95.1130000000	42
95.1430000000	39
95.1730000000	32
95.2030000000	31
95.2330000000	43
95.2630000000	45
95.2930000000	51
95.3230000000	34
95.3530000000	33
95.3830000000	33
95.4130000000	42
95.4430000000	40
95.4730000000	39
95.5030000000	36
95.5330000000	37
95.5630000000	37
95.5930000000	32
95.6230000000	46
95.6530000000	45
95.6830000000	35
95.7130000000	37
95.7430000000	41
95.7730000000	33
95.8030000000	38
95.8330000000	41
95.8630000000	44
95.8930000000	34
95.9230000000	45
95.9530000000	43
95.9830000000	31
96.0130000000	31
96.0430000000	33
96.0730000000	41
96.1030000000	42
96.1330000000	33
96.1630000000	41
96.1930000000	33
96.2230000000	42
96.2530000000	41
96.2830000000	46
96.3130000000	44
96.3430000000	41
96.3730000000	38
96.4030000000	46
96.4330000000	45
96.4630000000	38
96.4930000000	38
96.5230000000	43
96.5530000000	44
96.5830000000	44
96.6130000000	34
96.6430000000	34
96.6730000000	40
96.7030000000	36
96.7330000000	40
96.7630000000	40
96.7930000000	47
96.8230000000	39
96.8530000000	46
96.8830000000	35
96.9130000000	42
96.9430000000	38
96.9730000000	43
97.0030000000	35
97.0330000000	33
97.0630000000	35
97.0930000000	37
97.1230000000	40
97.1530000000	34
97.1830000000	39
97.2130000000	34
97.2430000000	52
97.2730000000	41
97.3030000000	34
97.3330000000	35
97.3630000000	41
97.3930000000	41
97.4230000000	37
97.4530000000	42
97.4830000000	44
97.5130000000	35
97.5430000000	38
97.5730000000	33
97.6030000000	41
97.6330000000	46
97.6630000000	34
97.6930000000	36
97.7230000000	36
97.7530000000	31
97.7830000000	45
97.8130000000	30
97.8430000000	33
97.8730000000	40
97.9030000000	45
97.9330000000	41
97.9630000000	46
97.9930000000	32
98.0230000000	35
98.0530000000	42
98.0830000000	40
98.1130000000	25
98.1430000000	36
98.1730000000	48
98.2030000000	35
98.2330000000	38
98.2630000000	49
98.2930000000	43
98.3230000000	38
98.3530000000	48
98.3830000000	42
98.4130000000	35
98.4430000000	35
98.4730000000	49
98.5030000000	41
98.5330000000	38
98.5630000000	37
98.5930000000	41
98.6230000000	45
98.6530000000	41
98.6830000000	38
98.7130000000	35
98.7430000000	39
98.7730000000	44
98.8030000000	39
98.8330000000	37
98.8630000000	38
98.8930000000	32
98.9230000000	30
98.9530000000	33
98.9830000000	35
99.0130000000	34
99.0430000000	37
99.0730000000	36
99.1030000000	42
99.1330000000	33
99.1630000000	47
99.1930000000	35
99.2230000000	42
99.2530000000	41
99.2830000000	39
99.3130000000	38
99.3430000000	38
99.3730000000	28
99.4030000000	33
99.4330000000	45
99.4630000000	36
99.4930000000	39
99.5230000000	31
99.5530000000	43
99.5830000000	32
99.6130000000	38
99.6430000000	32
99.6730000000	43
99.7030000000	37
99.7330000000	33
99.7630000000	38
99.7930000000	35
99.8230000000	42
99.8530000000	41
99.8830000000	32
99.9130000000	29
99.9430000000	43
99.9730000000	33
100.0030000000	28
100.0330000000	43
100.0630000000	41
100.0930000000	32
100.1230000000	45
100.1530000000	41
100.1830000000	31
100.2130000000	32
100.2430000000	27
100.2730000000	40
100.3030000000	44
100.3330000000	36
100.3630000000	27
100.3930000000	34
100.4230000000	32
100.4530000000	50
100.4830000000	30
100.5130000000	49
100.5430000000	38
100.5730000000	27
100.6030000000	36
100.6330000000	39
100.6630000000	41
100.6930000000	36
100.7230000000	34
100.7530000000	42
100.7830000000	31
100.8130000000	27
100.8430000000	45
100.8730000000	28
100.9030000000	33
100.9330000000	41
100.9630000000	42
100.9930000000	31
101.0230000000	27
101.0530000000	33
101.0830000000	28
101.1130000000	39
101.1430000000	31
101.1730000000	20
101.2030000000	26
101.2330000000	46
101.2630000000	33
101.2930000000	34
101.3230000000	35
101.3530000000	32
101.3830000000	34
101.4130000000	33
101.4430000000	31
101.4730000000	35
101.5030000000	27
101.5330000000	36
101.5630000000	35
101.5930000000	38
101.6230000000	44
101.6530000000	38
101.6830000000	33
101.7130000000	28
101.7430000000	33
101.7730000000	40
101.8030000000	39
101.8330000000	43
101.8630000000	44
101.8930000000	39
101.9230000000	38
101.9530000000	37
101.9830000000	38
102.0130000000	43
102.0430000000	32
102.0730000000	31
102.1030000000	35
102.1330000000	40
102.1630000000	29
102.1930000000	39
102.2230000000	38
102.2530000000	41
102.2830000000	46
102.3130000000	47
102.3430000000	33
102.3730000000	40
102.4030000000	33
102.4330000000	40
102.4630000000	43
102.4930000000	38
102.5230000000	26
102.5530000000	38
102.5830000000	40
102.6130000000	41
102.6430000000	37
102.6730000000	39
102.7030000000	27
102.7330000000	41
102.7630000000	34
102.7930000000	30
102.8230000000	48
102.8530000000	36
102.8830000000	43
102.9130000000	40
102.9430000000	36
102.9730000000	46
103.0030000000	35
103.0330000000	36
103.0630000000	29
103.0930000000	30
103.1230000000	38
103.1530000000	36
103.1830000000	40
103.2130000000	39
103.2430000000	40
103.2730000000	38
103.3030000000	37
103.3330000000	51
103.3630000000	31
103.3930000000	42
103.4230000000	51
103.4530000000	39
103.4830000000	35
103.5130000000	33
103.5430000000	40
103.5730000000	35
103.6030000000	38
103.6330000000	40
103.6630000000	40
103.6930000000	44
103.7230000000	37
103.7530000000	37
103.7830000000	47
103.8130000000	36
103.8430000000	46
103.8730000000	35
103.9030000000	39
103.9330000000	42
103.9630000000	32
103.9930000000	35
104.0230000000	34
104.0530000000	35
104.0830000000	28
104.1130000000	37
104.1430000000	53
104.1730000000	37
104.2030000000	46
104.2330000000	48
104.2630000000	37
104.2930000000	41
104.3230000000	37
104.3530000000	35
104.3830000000	36
104.4130000000	39
104.4430000000	49
104.4730000000	38
104.5030000000	57
104.5330000000	41
104.5630000000	39
104.5930000000	49
104.6230000000	46
104.6530000000	45
104.6830000000	31
104.7130000000	33
104.7430000000	39
104.7730000000	45
104.8030000000	40
104.8330000000	36
104.8630000000	42
104.8930000000	38
104.9230000000	38
104.9530000000	27
104.9830000000	44
105.0130000000	44
105.0430000000	32
105.0730000000	44
105.1030000000	36
105.1330000000	34
105.1630000000	45
105.1930000000	38
105.2230000000	31
105.2530000000	34
105.2830000000	35
105.3130000000	36
105.3430000000	45
105.3730000000	42
105.4030000000	41
105.4330000000	38
105.4630000000	46
105.4930000000	42
105.5230000000	30
105.5530000000	40
105.5830000000	30
105.6130000000	40
105.6430000000	33
105.6730000000	39
105.7030000000	38
105.7330000000	36
105.7630000000	43
105.7930000000	44
105.8230000000	31
105.8530000000	40
105.8830000000	43
105.9130000000	41
105.9430000000	33
105.9730000000	36
106.0030000000	38
106.0330000000	40
106.0630000000	35
106.0930000000	41
106.1230000000	30
106.1530000000	39
106.1830000000	44
106.2130000000	32
106.2430000000	35
106.2730000000	38
106.3030000000	34
106.3330000000	37
106.3630000000	41
106.3930000000	35
106.4230000000	37
106.4530000000	42
106.4830000000	34
106.5130000000	43
106.5430000000	38
106.5730000000	49
106.6030000000	46
106.6330000000	33
106.6630000000	37
106.6930000000	37
106.7230000000	31
106.7530000000	35
106.7830000000	45
106.8130000000	31
106.8430000000	47
106.8730000000	41
106.9030000000	45
106.9330000000	36
106.9630000000	38
106.9930000000	27
107.0230000000	41
107.0530000000	37
107.0830000000	34
107.1130000000	41
107.1430000000	41
107.1730000000	29
107.2030000000	41
107.2330000000	42
107.2630000000	47
107.2930000000	33
107.3230000000	34
107.3530000000	33
107.3830000000	38
107.4130000000	36
107.4430000000	25
107.4730000000	34
107.5030000000	35
107.5330000000	31
107.5630000000	41
107.5930000000	38
107.6230000000	46
107.6530000000	47
107.6830000000	41
107.7130000000	41
107.7430000000	41
107.7730000000	43
107.8030000000	37
107.8330000000	39
107.8630000000	40
107.8930000000	36
107.9230000000	34
107.9530000000	32
107.9830000000	52
108.0130000000	56
108.0430000000	45
108.0730000000	31
108.1030000000	38
108.1330000000	36
108.1630000000	29
108.1930000000	32
108.2230000000	47
108.2530000000	35
108.2830000000	33
108.3130000000	46
108.3430000000	22
108.3730000000	37
108.4030000000	41
108.4330000000	34
108.4630000000	44
108.4930000000	30
108.5230000000	54
108.5530000000	39
108.5830000000	32
108.6130000000	38
108.6430000000	41
108.6730000000	37
108.7030000000	34
108.7330000000	39
108.7630000000	48
108.7930000000	40
108.8230000000	29
108.8530000000	40
108.8830000000	34
108.9130000000	40
108.9430000000	36
108.9730000000	28
109.0030000000	45
109.0330000000	37
109.0630000000	33
109.0930000000	25
109.1230000000	34
109.1530000000	33
109.1830000000	37
109.2130000000	38
109.2430000000	29
109.2730000000	37
109.3030000000	40
109.3330000000	32
109.3630000000	43
109.3930000000	43
109.4230000000	36
109.4530000000	35
109.4830000000	40
109.5130000000	31
109.5430000000	45
109.5730000000	40
109.6030000000	34
109.6330000000	39
109.6630000000	25
109.6930000000	42
109.7230000000	50
109.7530000000	37
109.7830000000	42
109.8130000000	44
109.8430000000	34
109.8730000000	42
109.9030000000	29
109.9330000000	38
109.9630000000	49
109.9930000000	34
110.0230000000	39
110.0530000000	29
110.0830000000	46
110.1130000000	41
110.1430000000	43
110.1730000000	45
110.2030000000	38
110.2330000000	37
110.2630000000	39
110.2930000000	40
110.3230000000	42
110.3530000000	43
110.3830000000	33
110.4130000000	42
110.4430000000	42
110.4730000000	52
110.5030000000	38
110.5330000000	37
110.5630000000	38
110.5930000000	34
110.6230000000	43
110.6530000000	40
110.6830000000	33
110.7130000000	36
110.7430000000	41
110.7730000000	28
110.8030000000	28
110.8330000000	32
110.8630000000	42
110.8930000000	39
110.9230000000	42
110.9530000000	43
110.9830000000	41
111.0130000000	41
111.0430000000	34
111.0730000000	39
111.1030000000	43
111.1330000000	34
111.1630000000	28
111.1930000000	31
111.2230000000	39
111.2530000000	40
111.2830000000	36
111.3130000000	43
111.3430000000	47
111.3730000000	44
111.4030000000	30
111.4330000000	34
111.4630000000	43
111.4930000000	41
111.5230000000	47
111.5530000000	35
111.5830000000	33
111.6130000000	43
111.6430000000	49
111.6730000000	40
111.7030000000	36
111.7330000000	39
111.7630000000	45
111.7930000000	37
111.8230000000	33
111.8530000000	34
111.8830000000	44
111.9130000000	34
111.9430000000	36
111.9730000000	42
112.0030000000	56
112.0330000000	32
112.0630000000	44
112.0930000000	38
112.1230000000	49
112.1530000000	44
112.1830000000	38
112.2130000000	37
112.2430000000	32
112.2730000000	33
112.3030000000	45
112.3330000000	35
112.3630000000	37
112.3930000000	44
112.4230000000	31
112.4530000000	34
112.4830000000	32
112.5130000000	49
112.5430000000	55
112.5730000000	39
112.6030000000	38
112.6330000000	36
112.6630000000	35
112.6930000000	42
112.7230000000	44
112.7530000000	41
112.7830000000	39
112.8130000000	45
112.8430000000	56
112.8730000000	46
112.9030000000	64
112.9330000000	66
112.9630000000	58
112.9930000000	58
113.0230000000	52
113.0530000000	38
113.0830000000	48
113.1130000000	35
113.1430000000	42
113.1730000000	52
113.2030000000	47
113.2330000000	56
113.2630000000	42
113.2930000000	50
113.3230000000	48
113.3530000000	46
113.3830000000	51
113.4130000000	45
113.4430000000	37
113.4730000000	44
113.5030000000	41
113.5330000000	33
113.5630000000	37
113.5930000000	35
113.6230000000	49
113.6530000000	52
113.6830000000	35
113.7130000000	32
113.7430000000	37
113.7730000000	45
113.8030000000	43
113.8330000000	39
113.8630000000	38
113.8930000000	43
113.9230000000	44
113.9530000000	35
113.9830000000	46
114.0130000000	33
114.0430000000	45
114.0730000000	32
114.1030000000	32
114.1330000000	41
114.1630000000	45
114.1930000000	36
114.2230000000	40
114.2530000000	40
114.2830000000	41
114.3130000000	47
114.3430000000	36
114.3730000000	38
114.4030000000	46
114.4330000000	44
114.4630000000	1
114.4930000000	1
114.5230000000	1
114.5530000000	1
114.5830000000	1
