0.3130000000	1
0.3430000000	1
0.3730000000	1
0.4030000000	1
0.4330000000	1
0.4630000000	3
0.4930000000	1
0.5230000000	2
0.5530000000	1
0.5830000000	1
0.6130000000	1
0.6430000000	2
0.6730000000	2
0.7030000000	1
0.7330000000	1
0.7630000000	1
0.7930000000	1
0.8230000000	2
0.8530000000	1
0.8830000000	1
0.9130000000	1
0.9430000000	1
0.9730000000	1
1.0030000000	2
1.0330000000	1
1.0630000000	1
1.0930000000	1
1.1230000000	1
1.1530000000	2
1.1830000000	1
1.2130000000	1
1.2430000000	1
1.2730000000	1
1.3030000000	1
1.3330000000	1
1.3630000000	2
1.3930000000	2
1.4230000000	2
1.4530000000	1
1.4830000000	2
1.5130000000	1
1.5430000000	1
1.5730000000	1
1.6030000000	1
1.6330000000	1
1.6630000000	1
1.6930000000	1
1.7230000000	1
1.7530000000	1
1.7830000000	2
1.8130000000	1
1.8430000000	1
1.8730000000	1
1.9030000000	1
1.9330000000	1
1.9630000000	1
1.9930000000	1
2.0230000000	1
2.0530000000	1
2.0830000000	1
2.1130000000	1
2.1430000000	2
2.1730000000	1
2.2030000000	2
2.2330000000	2
2.2630000000	2
2.2930000000	2
2.3230000000	1
2.3530000000	1
2.3830000000	2
2.4130000000	1
2.4430000000	1
2.4730000000	2
2.5030000000	2
2.5330000000	1
2.5630000000	1
2.5930000000	1
2.6230000000	1
2.6530000000	1
2.6830000000	2
2.7130000000	1
2.7430000000	2
2.7730000000	1
2.8030000000	1
2.8330000000	1
2.8630000000	2
2.8930000000	3
2.9230000000	1
2.9530000000	2
2.9830000000	3
3.0130000000	2
3.0430000000	1
3.0730000000	1
3.1030000000	1
3.1330000000	1
3.1630000000	3
3.1930000000	2
3.2230000000	2
3.2530000000	3
3.2830000000	2
3.3130000000	3
3.3430000000	1
3.3730000000	2
3.4030000000	1
3.4330000000	3
3.4630000000	2
3.4930000000	1
3.5230000000	2
3.5530000000	3
3.5830000000	1
3.6130000000	4
3.6430000000	1
3.6730000000	2
3.7030000000	2
3.7330000000	2
3.7630000000	1
3.7930000000	1
3.8230000000	2
3.8530000000	2
3.8830000000	2
3.9130000000	2
3.9430000000	3
3.9730000000	1
4.0030000000	3
4.0330000000	3
4.0630000000	4
4.0930000000	5
4.1230000000	1
4.1530000000	4
4.1830000000	4
4.2130000000	6
4.2430000000	4
4.2730000000	3
4.3030000000	3
4.3330000000	2
4.3630000000	4
4.3930000000	4
4.4230000000	11
4.4530000000	8
4.4830000000	19
4.5130000000	15
4.5430000000	40
4.5730000000	55
4.6030000000	84
4.6330000000	98
4.6630000000	121
4.6930000000	134
4.7230000000	145
4.7530000000	137
4.7830000000	139
4.8130000000	157
4.8430000000	148
4.8730000000	163
4.9030000000	140
4.9330000000	177
4.9630000000	166
4.9930000000	162
5.0230000000	144
5.0530000000	121
5.0830000000	140
5.1130000000	144
5.1430000000	150
5.1730000000	139
5.2030000000	152
5.2330000000	154
5.2630000000	159
5.2930000000	129
5.3230000000	146
5.3530000000	150
5.3830000000	146
5.4130000000	161
5.4430000000	170
5.4730000000	158
5.5030000000	156
5.5330000000	139
5.5630000000	167
5.5930000000	146
5.6230000000	141
5.6530000000	142
5.6830000000	130
5.7130000000	149
5.7430000000	160
5.7730000000	168
5.8030000000	146
5.8330000000	153
5.8630000000	165
5.8930000000	152
5.9230000000	158
5.9530000000	177
5.9830000000	167
6.0130000000	173
6.0430000000	169
6.0730000000	165
6.1030000000	161
6.1330000000	139
6.1630000000	168
6.1930000000	150
6.2230000000	175
6.2530000000	160
6.2830000000	164
6.3130000000	146
6.3430000000	129
6.3730000000	152
6.4030000000	162
6.4330000000	164
6.4630000000	165
6.4930000000	154
6.5230000000	149
6.5530000000	156
6.5830000000	138
6.6130000000	164
6.6430000000	140
6.6730000000	152
6.7030000000	150
6.7330000000	168
6.7630000000	145
6.7930000000	163
6.8230000000	144
6.8530000000	151
6.8830000000	170
6.9130000000	153
6.9430000000	143
6.9730000000	158
7.0030000000	154
7.0330000000	162
7.0630000000	166
7.0930000000	174
7.1230000000	170
7.1530000000	152
7.1830000000	148
7.2130000000	155
7.2430000000	150
7.2730000000	168
7.3030000000	174
7.3330000000	174
7.3630000000	154
7.3930000000	133
7.4230000000	142
7.4530000000	147
7.4830000000	148
7.5130000000	170
7.5430000000	148
7.5730000000	166
7.6030000000	160
7.6330000000	143
7.6630000000	152
7.6930000000	160
7.7230000000	166
7.7530000000	151
7.7830000000	135
7.8130000000	145
7.8430000000	175
7.8730000000	165
7.9030000000	155
7.9330000000	165
7.9630000000	159
7.9930000000	163
8.0230000000	154
8.0530000000	139
8.0830000000	143
8.1130000000	169
8.1430000000	146
8.1730000000	147
8.2030000000	160
8.2330000000	151
8.2630000000	171
8.2930000000	169
8.3230000000	140
8.3530000000	160
8.3830000000	175
8.4130000000	159
8.4430000000	164
8.4730000000	168
8.5030000000	162
8.5330000000	166
8.5630000000	169
8.5930000000	176
8.6230000000	150
8.6530000000	148
8.6830000000	161
8.7130000000	147
8.7430000000	181
8.7730000000	172
8.8030000000	160
8.8330000000	148
8.8630000000	155
8.8930000000	147
8.9230000000	157
8.9530000000	157
8.9830000000	191
9.0130000000	141
9.0430000000	163
9.0730000000	167
9.1030000000	182
9.1330000000	169
9.1630000000	167
9.1930000000	168
9.2230000000	152
9.2530000000	160
9.2830000000	170
9.3130000000	176
9.3430000000	164
9.3730000000	156
9.4030000000	152
9.4330000000	161
9.4630000000	194
9.4930000000	178
9.5230000000	164
9.5530000000	142
9.5830000000	142
9.6130000000	148
9.6430000000	172
9.6730000000	141
9.7030000000	154
9.7330000000	143
9.7630000000	173
9.7930000000	149
9.8230000000	189
9.8530000000	168
9.8830000000	156
9.9130000000	161
9.9430000000	164
9.9730000000	164
10.0030000000	173
10.0330000000	171
10.0630000000	150
10.0930000000	174
10.1230000000	148
10.1530000000	174
10.1830000000	185
10.2130000000	166
10.2430000000	176
10.2730000000	170
10.3030000000	181
10.3330000000	145
10.3630000000	156
10.3930000000	134
10.4230000000	157
10.4530000000	157
10.4830000000	185
10.5130000000	176
10.5430000000	159
10.5730000000	149
10.6030000000	175
10.6330000000	163
10.6630000000	153
10.6930000000	156
10.7230000000	180
10.7530000000	162
10.7830000000	179
10.8130000000	161
10.8430000000	178
10.8730000000	156
10.9030000000	167
10.9330000000	165
10.9630000000	147
10.9930000000	176
11.0230000000	184
11.0530000000	160
11.0830000000	170
11.1130000000	156
11.1430000000	146
11.1730000000	170
11.2030000000	165
11.2330000000	188
11.2630000000	180
11.2930000000	174
11.3230000000	165
11.3530000000	166
11.3830000000	165
11.4130000000	164
11.4430000000	156
11.4730000000	163
11.5030000000	160
11.5330000000	164
11.5630000000	186
11.5930000000	160
11.6230000000	185
11.6530000000	150
11.6830000000	153
11.7130000000	140
11.7430000000	167
11.7730000000	160
11.8030000000	165
11.8330000000	173
11.8630000000	160
11.8930000000	164
11.9230000000	169
11.9530000000	171
11.9830000000	145
12.0130000000	175
12.0430000000	181
12.0730000000	160
12.1030000000	180
12.1330000000	166
12.1630000000	173
12.1930000000	184
12.2230000000	173
12.2530000000	158
12.2830000000	152
12.3130000000	177
12.3430000000	176
12.3730000000	178
12.4030000000	171
12.4330000000	178
12.4630000000	195
12.4930000000	185
12.5230000000	169
12.5530000000	155
12.5830000000	181
12.6130000000	178
12.6430000000	170
12.6730000000	168
12.7030000000	167
12.7330000000	176
12.7630000000	170
12.7930000000	171
12.8230000000	173
12.8530000000	185
12.8830000000	177
12.9130000000	154
12.9430000000	155
12.9730000000	170
13.0030000000	165
13.0330000000	156
13.0630000000	162
13.0930000000	163
13.1230000000	157
13.1530000000	141
13.1830000000	163
13.2130000000	161
13.2430000000	144
13.2730000000	176
13.3030000000	170
13.3330000000	156
13.3630000000	162
13.3930000000	171
13.4230000000	155
13.4530000000	182
13.4830000000	174
13.5130000000	157
13.5430000000	167
13.5730000000	162
13.6030000000	169
13.6330000000	141
13.6630000000	160
13.6930000000	167
13.7230000000	170
13.7530000000	153
13.7830000000	162
13.8130000000	172
13.8430000000	156
13.8730000000	148
13.9030000000	162
13.9330000000	149
13.9630000000	162
13.9930000000	177
14.0230000000	173
14.0530000000	147
14.0830000000	150
14.1130000000	178
14.1430000000	163
14.1730000000	152
14.2030000000	164
14.2330000000	150
14.2630000000	151
14.2930000000	154
14.3230000000	158
14.3530000000	165
14.3830000000	174
14.4130000000	179
14.4430000000	161
14.4730000000	142
14.5030000000	173
14.5330000000	151
14.5630000000	158
14.5930000000	179
14.6230000000	176
14.6530000000	176
14.6830000000	167
14.7130000000	176
14.7430000000	180
14.7730000000	178
14.8030000000	193
14.8330000000	179
14.8630000000	178
14.8930000000	184
14.9230000000	178
14.9530000000	182
14.9830000000	164
15.0130000000	191
15.0430000000	152
15.0730000000	164
15.1030000000	168
15.1330000000	161
15.1630000000	179
15.1930000000	145
15.2230000000	168
15.2530000000	154
15.2830000000	182
15.3130000000	204
15.3430000000	173
15.3730000000	172
15.4030000000	190
15.4330000000	174
15.4630000000	175
15.4930000000	179
15.5230000000	176
15.5530000000	158
15.5830000000	167
15.6130000000	192
15.6430000000	151
15.6730000000	170
15.7030000000	150
15.7330000000	163
15.7630000000	167
15.7930000000	185
15.8230000000	183
15.8530000000	161
15.8830000000	169
15.9130000000	161
15.9430000000	152
15.9730000000	138
16.0030000000	168
16.0330000000	169
16.0630000000	153
16.0930000000	171
16.1230000000	166
16.1530000000	171
16.1830000000	171
16.2130000000	155
16.2430000000	163
16.2730000000	162
16.3030000000	182
16.3330000000	169
16.3630000000	181
16.3930000000	182
16.4230000000	178
16.4530000000	172
16.4830000000	168
16.5130000000	181
16.5430000000	184
16.5730000000	177
16.6030000000	215
16.6330000000	175
16.6630000000	177
16.6930000000	158
16.7230000000	157
16.7530000000	151
16.7830000000	192
16.8130000000	164
16.8430000000	151
16.8730000000	172
16.9030000000	162
16.9330000000	188
16.9630000000	186
16.9930000000	183
17.0230000000	182
17.0530000000	174
17.0830000000	180
17.1130000000	172
17.1430000000	176
17.1730000000	205
17.2030000000	187
17.2330000000	188
17.2630000000	200
17.2930000000	194
17.3230000000	179
17.3530000000	204
17.3830000000	171
17.4130000000	179
17.4430000000	194
17.4730000000	181
17.5030000000	201
17.5330000000	192
17.5630000000	184
17.5930000000	190
17.6230000000	188
17.6530000000	177
17.6830000000	171
17.7130000000	173
17.7430000000	190
17.7730000000	205
17.8030000000	192
17.8330000000	169
17.8630000000	162
17.8930000000	177
17.9230000000	194
17.9530000000	175
17.9830000000	169
18.0130000000	167
18.0430000000	147
18.0730000000	169
18.1030000000	174
18.1330000000	166
18.1630000000	174
18.1930000000	165
18.2230000000	160
18.2530000000	161
18.2830000000	167
18.3130000000	152
18.3430000000	155
18.3730000000	167
18.4030000000	160
18.4330000000	166
18.4630000000	177
18.4930000000	181
18.5230000000	182
18.5530000000	160
18.5830000000	169
18.6130000000	190
18.6430000000	189
18.6730000000	190
18.7030000000	189
18.7330000000	183
18.7630000000	170
18.7930000000	196
18.8230000000	196
18.8530000000	199
18.8830000000	178
18.9130000000	173
18.9430000000	171
18.9730000000	193
19.0030000000	162
19.0330000000	159
19.0630000000	196
19.0930000000	184
19.1230000000	199
19.1530000000	165
19.1830000000	183
19.2130000000	196
19.2430000000	180
19.2730000000	191
19.3030000000	186
19.3330000000	184
19.3630000000	194
19.3930000000	205
19.4230000000	155
19.4530000000	201
19.4830000000	199
19.5130000000	193
19.5430000000	196
19.5730000000	224
19.6030000000	173
19.6330000000	213
19.6630000000	193
19.6930000000	197
19.7230000000	186
19.7530000000	182
19.7830000000	169
19.8130000000	211
19.8430000000	177
19.8730000000	195
19.9030000000	181
19.9330000000	210
19.9630000000	191
19.9930000000	199
20.0230000000	197
20.0530000000	193
20.0830000000	202
20.1130000000	210
20.1430000000	195
20.1730000000	200
20.2030000000	179
20.2330000000	210
20.2630000000	216
20.2930000000	226
20.3230000000	201
20.3530000000	231
20.3830000000	169
20.4130000000	204
20.4430000000	201
20.4730000000	203
20.5030000000	218
20.5330000000	225
20.5630000000	224
20.5930000000	216
20.6230000000	207
20.6530000000	223
20.6830000000	209
20.7130000000	204
20.7430000000	227
20.7730000000	222
20.8030000000	219
20.8330000000	197
20.8630000000	224
20.8930000000	208
20.9230000000	210
20.9530000000	220
20.9830000000	202
21.0130000000	208
21.0430000000	211
21.0730000000	229
21.1030000000	217
21.1330000000	205
21.1630000000	216
21.1930000000	243
21.2230000000	235
21.2530000000	210
21.2830000000	235
21.3130000000	228
21.3430000000	222
21.3730000000	238
21.4030000000	212
21.4330000000	240
21.4630000000	215
21.4930000000	223
21.5230000000	217
21.5530000000	213
21.5830000000	236
21.6130000000	268
21.6430000000	222
21.6730000000	217
21.7030000000	245
21.7330000000	223
21.7630000000	247
21.7930000000	237
21.8230000000	249
21.8530000000	254
21.8830000000	239
21.9130000000	227
21.9430000000	235
21.9730000000	253
22.0030000000	239
22.0330000000	251
22.0630000000	247
22.0930000000	248
22.1230000000	265
22.1530000000	268
22.1830000000	242
22.2130000000	243
22.2430000000	266
22.2730000000	273
22.3030000000	258
22.3330000000	254
22.3630000000	262
22.3930000000	259
22.4230000000	260
22.4530000000	274
22.4830000000	263
22.5130000000	262
22.5430000000	262
22.5730000000	250
22.6030000000	232
22.6330000000	256
22.6630000000	271
22.6930000000	234
22.7230000000	243
22.7530000000	247
22.7830000000	286
22.8130000000	282
22.8430000000	229
22.8730000000	247
22.9030000000	263
22.9330000000	256
22.9630000000	274
22.9930000000	283
23.0230000000	262
23.0530000000	275
23.0830000000	239
23.1130000000	269
23.1430000000	251
23.1730000000	242
23.2030000000	239
23.2330000000	247
23.2630000000	263
23.2930000000	269
23.3230000000	264
23.3530000000	254
23.3830000000	254
23.4130000000	250
23.4430000000	252
23.4730000000	250
23.5030000000	236
23.5330000000	244
23.5630000000	255
23.5930000000	254
23.6230000000	258
23.6530000000	277
23.6830000000	254
23.7130000000	258
23.7430000000	241
23.7730000000	269
23.8030000000	257
23.8330000000	261
23.8630000000	250
23.8930000000	239
23.9230000000	280
23.9530000000	248
23.9830000000	244
24.0130000000	221
24.0430000000	244
24.0730000000	245
24.1030000000	233
24.1330000000	243
24.1630000000	240
24.1930000000	240
24.2230000000	223
24.2530000000	217
24.2830000000	246
24.3130000000	227
24.3430000000	221
24.3730000000	257
24.4030000000	242
24.4330000000	217
24.4630000000	231
24.4930000000	244
24.5230000000	243
24.5530000000	243
24.5830000000	257
24.6130000000	228
24.6430000000	214
24.6730000000	253
24.7030000000	238
24.7330000000	236
24.7630000000	247
24.7930000000	243
24.8230000000	256
24.8530000000	228
24.8830000000	248
24.9130000000	238
24.9430000000	236
24.9730000000	238
25.0030000000	210
25.0330000000	251
25.0630000000	244
25.0930000000	213
25.1230000000	239
25.1530000000	218
25.1830000000	239
25.2130000000	226
25.2430000000	243
25.2730000000	227
25.3030000000	250
25.3330000000	259
25.3630000000	257
25.3930000000	199
25.4230000000	254
25.4530000000	230
25.4830000000	230
25.5130000000	224
25.5430000000	228
25.5730000000	242
25.6030000000	243
25.6330000000	241
25.6630000000	238
25.6930000000	239
25.7230000000	225
25.7530000000	254
25.7830000000	220
25.8130000000	231
25.8430000000	239
25.8730000000	245
25.9030000000	216
25.9330000000	231
25.9630000000	232
25.9930000000	221
26.0230000000	227
26.0530000000	244
26.0830000000	213
26.1130000000	243
26.1430000000	250
26.1730000000	239
26.2030000000	244
26.2330000000	234
26.2630000000	228
26.2930000000	223
26.3230000000	255
26.3530000000	206
26.3830000000	241
26.4130000000	223
26.4430000000	223
26.4730000000	236
26.5030000000	247
26.5330000000	238
26.5630000000	231
26.5930000000	254
26.6230000000	224
26.6530000000	219
26.6830000000	210
26.7130000000	202
26.7430000000	223
26.7730000000	211
26.8030000000	204
26.8330000000	205
26.8630000000	208
26.8930000000	217
26.9230000000	233
26.9530000000	220
26.9830000000	209
27.0130000000	219
27.0430000000	219
27.0730000000	227
27.1030000000	228
27.1330000000	231
27.1630000000	242
27.1930000000	240
27.2230000000	234
27.2530000000	238
27.2830000000	211
27.3130000000	202
27.3430000000	218
27.3730000000	192
27.4030000000	197
27.4330000000	194
27.4630000000	194
27.4930000000	209
27.5230000000	200
27.5530000000	231
27.5830000000	239
27.6130000000	226
27.6430000000	221
27.6730000000	245
27.7030000000	214
27.7330000000	218
27.7630000000	201
27.7930000000	197
27.8230000000	203
27.8530000000	210
27.8830000000	221
27.9130000000	197
27.9430000000	213
27.9730000000	230
28.0030000000	234
28.0330000000	216
28.0630000000	208
28.0930000000	215
28.1230000000	201
28.1530000000	215
28.1830000000	231
28.2130000000	230
28.2430000000	247
28.2730000000	199
28.3030000000	231
28.3330000000	225
28.3630000000	218
28.3930000000	241
28.4230000000	210
28.4530000000	213
28.4830000000	236
28.5130000000	202
28.5430000000	212
28.5730000000	222
28.6030000000	224
28.6330000000	213
28.6630000000	191
28.6930000000	224
28.7230000000	191
28.7530000000	213
28.7830000000	204
28.8130000000	227
28.8430000000	225
28.8730000000	220
28.9030000000	189
28.9330000000	220
28.9630000000	206
28.9930000000	229
29.0230000000	209
29.0530000000	218
29.0830000000	232
29.1130000000	195
29.1430000000	206
29.1730000000	213
29.2030000000	181
29.2330000000	190
29.2630000000	188
29.2930000000	213
29.3230000000	196
29.3530000000	213
29.3830000000	223
29.4130000000	208
29.4430000000	184
29.4730000000	203
29.5030000000	198
29.5330000000	189
29.5630000000	205
29.5930000000	184
29.6230000000	203
29.6530000000	188
29.6830000000	218
29.7130000000	191
29.7430000000	211
29.7730000000	217
29.8030000000	225
29.8330000000	191
29.8630000000	182
29.8930000000	221
29.9230000000	186
29.9530000000	189
29.9830000000	205
30.0130000000	219
30.0430000000	215
30.0730000000	203
30.1030000000	211
30.1330000000	220
30.1630000000	204
30.1930000000	218
30.2230000000	184
30.2530000000	174
30.2830000000	169
30.3130000000	205
30.3430000000	196
30.3730000000	226
30.4030000000	242
30.4330000000	211
30.4630000000	208
30.4930000000	176
30.5230000000	213
30.5530000000	194
30.5830000000	181
30.6130000000	202
30.6430000000	225
30.6730000000	202
30.7030000000	180
30.7330000000	218
30.7630000000	205
30.7930000000	227
30.8230000000	207
30.8530000000	207
30.8830000000	196
30.9130000000	189
30.9430000000	207
30.9730000000	196
31.0030000000	194
31.0330000000	189
31.0630000000	207
31.0930000000	223
31.1230000000	193
31.1530000000	222
31.1830000000	229
31.2130000000	214
31.2430000000	208
31.2730000000	229
31.3030000000	229
31.3330000000	186
31.3630000000	220
31.3930000000	230
31.4230000000	202
31.4530000000	224
31.4830000000	200
31.5130000000	181
31.5430000000	195
31.5730000000	227
31.6030000000	198
31.6330000000	203
31.6630000000	196
31.6930000000	186
31.7230000000	201
31.7530000000	186
31.7830000000	190
31.8130000000	188
31.8430000000	170
31.8730000000	203
31.9030000000	196
31.9330000000	187
31.9630000000	191
31.9930000000	204
32.0230000000	193
32.0530000000	189
32.0830000000	189
32.1130000000	195
32.1430000000	189
32.1730000000	185
32.2030000000	184
32.2330000000	174
32.2630000000	163
32.2930000000	190
32.3230000000	184
32.3530000000	168
32.3830000000	164
32.4130000000	175
32.4430000000	202
32.4730000000	177
32.5030000000	184
32.5330000000	187
32.5630000000	196
32.5930000000	197
32.6230000000	163
32.6530000000	165
32.6830000000	188
32.7130000000	179
32.7430000000	181
32.7730000000	170
32.8030000000	165
32.8330000000	176
32.8630000000	170
32.8930000000	170
32.9230000000	182
32.9530000000	174
32.9830000000	158
33.0130000000	167
33.0430000000	161
33.0730000000	165
33.1030000000	170
33.1330000000	159
33.1630000000	171
33.1930000000	170
33.2230000000	145
33.2530000000	189
33.2830000000	181
33.3130000000	182
33.3430000000	168
33.3730000000	171
33.4030000000	194
33.4330000000	180
33.4630000000	169
33.4930000000	154
33.5230000000	164
33.5530000000	178
33.5830000000	182
33.6130000000	158
33.6430000000	164
33.6730000000	160
33.7030000000	141
33.7330000000	157
33.7630000000	173
33.7930000000	127
33.8230000000	135
33.8530000000	161
33.8830000000	166
33.9130000000	153
33.9430000000	170
33.9730000000	172
34.0030000000	166
34.0330000000	164
34.0630000000	172
34.0930000000	171
34.1230000000	159
34.1530000000	162
34.1830000000	170
34.2130000000	171
34.2430000000	167
34.2730000000	168
34.3030000000	153
34.3330000000	149
34.3630000000	150
34.3930000000	150
34.4230000000	148
34.4530000000	159
34.4830000000	149
34.5130000000	149
34.5430000000	139
34.5730000000	152
34.6030000000	150
34.6330000000	136
34.6630000000	162
34.6930000000	152
34.7230000000	143
34.7530000000	161
34.7830000000	149
34.8130000000	160
34.8430000000	161
34.8730000000	145
34.9030000000	138
34.9330000000	163
34.9630000000	172
34.9930000000	151
35.0230000000	159
35.0530000000	160
35.0830000000	138
35.1130000000	137
35.1430000000	157
35.1730000000	161
35.2030000000	156
35.2330000000	134
35.2630000000	141
35.2930000000	133
35.3230000000	132
35.3530000000	147
35.3830000000	150
35.4130000000	140
35.4430000000	131
35.4730000000	141
35.5030000000	142
35.5330000000	145
35.5630000000	137
35.5930000000	150
35.6230000000	146
35.6530000000	139
35.6830000000	130
35.7130000000	138
35.7430000000	113
35.7730000000	133
35.8030000000	125
35.8330000000	146
35.8630000000	127
35.8930000000	119
35.9230000000	118
35.9530000000	131
35.9830000000	146
36.0130000000	140
36.0430000000	126
36.0730000000	145
36.1030000000	153
36.1330000000	135
36.1630000000	104
36.1930000000	133
36.2230000000	125
36.2530000000	132
36.2830000000	137
36.3130000000	126
36.3430000000	132
36.3730000000	125
36.4030000000	123
36.4330000000	139
36.4630000000	133
36.4930000000	139
36.5230000000	132
36.5530000000	133
36.5830000000	131
36.6130000000	136
36.6430000000	135
36.6730000000	115
36.7030000000	135
36.7330000000	143
36.7630000000	131
36.7930000000	121
36.8230000000	121
36.8530000000	146
36.8830000000	147
36.9130000000	128
36.9430000000	109
36.9730000000	123
37.0030000000	121
37.0330000000	124
37.0630000000	115
37.0930000000	118
37.1230000000	122
37.1530000000	122
37.1830000000	121
37.2130000000	136
37.2430000000	142
37.2730000000	131
37.3030000000	111
37.3330000000	118
37.3630000000	121
37.3930000000	128
37.4230000000	124
37.4530000000	116
37.4830000000	114
37.5130000000	119
37.5430000000	112
37.5730000000	122
37.6030000000	113
37.6330000000	108
37.6630000000	118
37.6930000000	136
37.7230000000	119
37.7530000000	109
37.7830000000	132
37.8130000000	120
37.8430000000	106
37.8730000000	106
37.9030000000	121
37.9330000000	110
37.9630000000	101
37.9930000000	124
38.0230000000	140
38.0530000000	123
38.0830000000	118
38.1130000000	97
38.1430000000	111
38.1730000000	113
38.2030000000	107
38.2330000000	120
38.2630000000	109
38.2930000000	117
38.3230000000	115
38.3530000000	113
38.3830000000	114
38.4130000000	105
38.4430000000	116
38.4730000000	117
38.5030000000	127
38.5330000000	123
38.5630000000	108
38.5930000000	107
38.6230000000	110
38.6530000000	110
38.6830000000	131
38.7130000000	124
38.7430000000	113
38.7730000000	118
38.8030000000	120
38.8330000000	115
38.8630000000	104
38.8930000000	107
38.9230000000	100
38.9530000000	97
38.9830000000	107
39.0130000000	114
39.0430000000	116
39.0730000000	94
39.1030000000	128
39.1330000000	127
39.1630000000	101
39.1930000000	122
39.2230000000	114
39.2530000000	117
39.2830000000	135
39.3130000000	102
39.3430000000	98
39.3730000000	119
39.4030000000	99
39.4330000000	117
39.4630000000	103
39.4930000000	103
39.5230000000	130
39.5530000000	137
39.5830000000	106
39.6130000000	123
39.6430000000	104
39.6730000000	104
39.7030000000	117
39.7330000000	91
39.7630000000	99
39.7930000000	105
39.8230000000	98
39.8530000000	118
39.8830000000	98
39.9130000000	108
39.9430000000	118
39.9730000000	114
40.0030000000	87
40.0330000000	108
40.0630000000	94
40.0930000000	97
40.1230000000	89
40.1530000000	112
40.1830000000	95
40.2130000000	122
40.2430000000	83
40.2730000000	110
40.3030000000	88
40.3330000000	108
40.3630000000	105
40.3930000000	122
40.4230000000	119
40.4530000000	86
40.4830000000	88
40.5130000000	111
40.5430000000	99
40.5730000000	113
40.6030000000	102
40.6330000000	131
40.6630000000	92
40.6930000000	102
40.7230000000	110
40.7530000000	103
40.7830000000	104
40.8130000000	105
40.8430000000	124
40.8730000000	115
40.9030000000	108
40.9330000000	111
40.9630000000	102
40.9930000000	105
41.0230000000	92
41.0530000000	108
41.0830000000	94
41.1130000000	119
41.1430000000	107
41.1730000000	110
41.2030000000	108
41.2330000000	82
41.2630000000	113
41.2930000000	106
41.3230000000	96
41.3530000000	87
41.3830000000	105
41.4130000000	102
41.4430000000	96
41.4730000000	116
41.5030000000	125
41.5330000000	104
41.5630000000	94
41.5930000000	110
41.6230000000	112
41.6530000000	101
41.6830000000	110
41.7130000000	83
41.7430000000	103
41.7730000000	87
41.8030000000	93
41.8330000000	104
41.8630000000	105
41.8930000000	97
41.9230000000	94
41.9530000000	96
41.9830000000	106
42.0130000000	104
42.0430000000	85
42.0730000000	81
42.1030000000	102
42.1330000000	99
42.1630000000	94
42.1930000000	85
42.2230000000	89
42.2530000000	106
42.2830000000	104
42.3130000000	93
42.3430000000	98
42.3730000000	111
42.4030000000	96
42.4330000000	82
42.4630000000	85
42.4930000000	81
42.5230000000	84
42.5530000000	83
42.5830000000	78
42.6130000000	98
42.6430000000	114
42.6730000000	93
42.7030000000	92
42.7330000000	96
42.7630000000	79
42.7930000000	86
42.8230000000	90
42.8530000000	86
42.8830000000	87
42.9130000000	95
42.9430000000	83
42.9730000000	89
43.0030000000	93
43.0330000000	89
43.0630000000	93
43.0930000000	105
43.1230000000	94
43.1530000000	115
43.1830000000	90
43.2130000000	86
43.2430000000	111
43.2730000000	83
43.3030000000	101
43.3330000000	99
43.3630000000	93
43.3930000000	85
43.4230000000	74
43.4530000000	92
43.4830000000	82
43.5130000000	92
43.5430000000	82
43.5730000000	66
43.6030000000	91
43.6330000000	100
43.6630000000	79
43.6930000000	77
43.7230000000	104
43.7530000000	74
43.7830000000	83
43.8130000000	88
43.8430000000	89
43.8730000000	88
43.9030000000	86
43.9330000000	90
43.9630000000	86
43.9930000000	85
44.0230000000	89
44.0530000000	90
44.0830000000	84
44.1130000000	95
44.1430000000	83
44.1730000000	90
44.2030000000	78
44.2330000000	84
44.2630000000	89
44.2930000000	94
44.3230000000	90
44.3530000000	70
44.3830000000	77
44.4130000000	86
44.4430000000	85
44.4730000000	75
44.5030000000	86
44.5330000000	79
44.5630000000	80
44.5930000000	81
44.6230000000	92
44.6530000000	86
44.6830000000	88
44.7130000000	93
44.7430000000	80
44.7730000000	93
44.8030000000	77
44.8330000000	72
44.8630000000	85
44.8930000000	86
44.9230000000	76
44.9530000000	81
44.9830000000	84
45.0130000000	76
45.0430000000	90
45.0730000000	88
45.1030000000	92
45.1330000000	78
45.1630000000	74
45.1930000000	89
45.2230000000	74
45.2530000000	86
45.2830000000	78
45.3130000000	80
45.3430000000	84
45.3730000000	84
45.4030000000	90
45.4330000000	65
45.4630000000	72
45.4930000000	77
45.5230000000	81
45.5530000000	77
45.5830000000	77
45.6130000000	75
45.6430000000	72
45.6730000000	85
45.7030000000	89
45.7330000000	90
45.7630000000	94
45.7930000000	84
45.8230000000	84
45.8530000000	68
45.8830000000	69
45.9130000000	89
45.9430000000	80
45.9730000000	95
46.0030000000	98
46.0330000000	74
46.0630000000	97
46.0930000000	80
46.1230000000	65
46.1530000000	76
46.1830000000	75
46.2130000000	85
46.2430000000	80
46.2730000000	65
46.3030000000	63
46.3330000000	77
46.3630000000	93
46.3930000000	64
46.4230000000	80
46.4530000000	80
46.4830000000	64
46.5130000000	70
46.5430000000	89
46.5730000000	64
46.6030000000	80
46.6330000000	58
46.6630000000	87
46.6930000000	68
46.7230000000	84
46.7530000000	72
46.7830000000	70
46.8130000000	74
46.8430000000	74
46.8730000000	65
46.9030000000	79
46.9330000000	60
46.9630000000	76
46.9930000000	83
47.0230000000	64
47.0530000000	71
47.0830000000	83
47.1130000000	64
47.1430000000	81
47.1730000000	72
47.2030000000	65
47.2330000000	84
47.2630000000	70
47.2930000000	81
47.3230000000	74
47.3530000000	65
47.3830000000	73
47.4130000000	77
47.4430000000	66
47.4730000000	66
47.5030000000	66
47.5330000000	79
47.5630000000	70
47.5930000000	78
47.6230000000	63
47.6530000000	73
47.6830000000	83
47.7130000000	69
47.7430000000	74
47.7730000000	70
47.8030000000	67
47.8330000000	55
47.8630000000	56
47.8930000000	73
47.9230000000	81
47.9530000000	71
47.9830000000	69
48.0130000000	72
48.0430000000	63
48.0730000000	71
48.1030000000	75
48.1330000000	68
48.1630000000	73
48.1930000000	53
48.2230000000	83
48.2530000000	82
48.2830000000	78
48.3130000000	65
48.3430000000	71
48.3730000000	87
48.4030000000	76
48.4330000000	70
48.4630000000	79
48.4930000000	67
48.5230000000	55
48.5530000000	68
48.5830000000	70
48.6130000000	53
48.6430000000	68
48.6730000000	68
48.7030000000	68
48.7330000000	78
48.7630000000	74
48.7930000000	65
48.8230000000	75
48.8530000000	71
48.8830000000	72
48.9130000000	75
48.9430000000	64
48.9730000000	68
49.0030000000	72
49.0330000000	69
49.0630000000	80
49.0930000000	73
49.1230000000	64
49.1530000000	64
49.1830000000	86
49.2130000000	79
49.2430000000	60
49.2730000000	57
49.3030000000	60
49.3330000000	60
49.3630000000	54
49.3930000000	54
49.4230000000	67
49.4530000000	59
49.4830000000	73
49.5130000000	74
49.5430000000	69
49.5730000000	74
49.6030000000	64
49.6330000000	76
49.6630000000	70
49.6930000000	61
49.7230000000	57
49.7530000000	57
49.7830000000	75
49.8130000000	63
49.8430000000	45
49.8730000000	59
49.9030000000	64
49.9330000000	77
49.9630000000	73
49.9930000000	65
50.0230000000	62
50.0530000000	65
50.0830000000	77
50.1130000000	55
50.1430000000	67
50.1730000000	82
50.2030000000	59
50.2330000000	62
50.2630000000	61
50.2930000000	64
50.3230000000	50
50.3530000000	65
50.3830000000	63
50.4130000000	70
50.4430000000	62
50.4730000000	64
50.5030000000	64
50.5330000000	54
50.5630000000	50
50.5930000000	69
50.6230000000	64
50.6530000000	51
50.6830000000	67
50.7130000000	63
50.7430000000	75
50.7730000000	68
50.8030000000	60
50.8330000000	63
50.8630000000	73
50.8930000000	69
50.9230000000	59
50.9530000000	57
50.9830000000	69
51.0130000000	62
51.0430000000	62
51.0730000000	58
51.1030000000	56
51.1330000000	64
51.1630000000	64
51.1930000000	77
51.2230000000	71
51.2530000000	65
51.2830000000	74
51.3130000000	66
51.3430000000	57
51.3730000000	65
51.4030000000	60
51.4330000000	48
51.4630000000	63
51.4930000000	55
51.5230000000	51
51.5530000000	67
51.5830000000	67
51.6130000000	48
51.6430000000	64
51.6730000000	60
51.7030000000	42
51.7330000000	58
51.7630000000	61
51.7930000000	55
51.8230000000	61
51.8530000000	62
51.8830000000	50
51.9130000000	55
51.9430000000	66
51.9730000000	51
52.0030000000	60
52.0330000000	58
52.0630000000	53
52.0930000000	49
52.1230000000	66
52.1530000000	62
52.1830000000	63
52.2130000000	53
52.2430000000	58
52.2730000000	52
52.3030000000	51
52.3330000000	60
52.3630000000	62
52.3930000000	48
52.4230000000	48
52.4530000000	57
52.4830000000	47
52.5130000000	62
52.5430000000	55
52.5730000000	60
52.6030000000	78
52.6330000000	67
52.6630000000	52
52.6930000000	45
52.7230000000	56
52.7530000000	54
52.7830000000	59
52.8130000000	55
52.8430000000	61
52.8730000000	55
52.9030000000	51
52.9330000000	39
52.9630000000	48
52.9930000000	55
53.0230000000	51
53.0530000000	58
53.0830000000	51
53.1130000000	49
53.1430000000	52
53.1730000000	50
53.2030000000	64
53.2330000000	46
53.2630000000	56
53.2930000000	53
53.3230000000	70
53.3530000000	58
53.3830000000	55
53.4130000000	49
53.4430000000	48
53.4730000000	47
53.5030000000	53
53.5330000000	62
53.5630000000	61
53.5930000000	45
53.6230000000	57
53.6530000000	59
53.6830000000	52
53.7130000000	52
53.7430000000	54
53.7730000000	62
53.8030000000	55
53.8330000000	56
53.8630000000	53
53.8930000000	52
53.9230000000	60
53.9530000000	57
53.9830000000	44
54.0130000000	59
54.0430000000	76
54.0730000000	67
54.1030000000	49
54.1330000000	50
54.1630000000	61
54.1930000000	49
54.2230000000	60
54.2530000000	48
54.2830000000	61
54.3130000000	40
54.3430000000	56
54.3730000000	61
54.4030000000	59
54.4330000000	45
54.4630000000	58
54.4930000000	56
54.5230000000	52
54.5530000000	45
54.5830000000	48
54.6130000000	55
54.6430000000	46
54.6730000000	50
54.7030000000	51
54.7330000000	52
54.7630000000	54
54.7930000000	49
54.8230000000	39
54.8530000000	50
54.8830000000	48
54.9130000000	52
54.9430000000	48
54.9730000000	50
55.0030000000	63
55.0330000000	56
55.0630000000	49
55.0930000000	65
55.1230000000	54
55.1530000000	57
55.1830000000	65
55.2130000000	41
55.2430000000	58
55.2730000000	50
55.3030000000	53
55.3330000000	54
55.3630000000	52
55.3930000000	64
55.4230000000	56
55.4530000000	40
55.4830000000	54
55.5130000000	52
55.5430000000	53
55.5730000000	44
55.6030000000	52
55.6330000000	49
55.6630000000	53
55.6930000000	53
55.7230000000	46
55.7530000000	54
55.7830000000	54
55.8130000000	47
55.8430000000	48
55.8730000000	53
55.9030000000	40
55.9330000000	55
55.9630000000	51
55.9930000000	52
56.0230000000	55
56.0530000000	53
56.0830000000	47
56.1130000000	51
56.1430000000	38
56.1730000000	47
56.2030000000	42
56.2330000000	55
56.2630000000	44
56.2930000000	49
56.3230000000	48
56.3530000000	44
56.3830000000	51
56.4130000000	46
56.4430000000	48
56.4730000000	50
56.5030000000	52
56.5330000000	58
56.5630000000	57
56.5930000000	37
56.6230000000	42
56.6530000000	54
56.6830000000	57
56.7130000000	46
56.7430000000	47
56.7730000000	49
56.8030000000	44
56.8330000000	60
56.8630000000	58
56.8930000000	46
56.9230000000	56
56.9530000000	41
56.9830000000	41
57.0130000000	48
57.0430000000	57
57.0730000000	56
57.1030000000	31
57.1330000000	40
57.1630000000	49
57.1930000000	48
57.2230000000	49
57.2530000000	41
57.2830000000	57
57.3130000000	38
57.3430000000	40
57.3730000000	47
57.4030000000	54
57.4330000000	47
57.4630000000	55
57.4930000000	54
57.5230000000	45
57.5530000000	46
57.5830000000	58
57.6130000000	57
57.6430000000	47
57.6730000000	51
57.7030000000	44
57.7330000000	46
57.7630000000	44
57.7930000000	43
57.8230000000	48
57.8530000000	38
57.8830000000	45
57.9130000000	42
57.9430000000	33
57.9730000000	48
58.0030000000	48
58.0330000000	44
58.0630000000	50
58.0930000000	49
58.1230000000	48
58.1530000000	35
58.1830000000	38
58.2130000000	37
58.2430000000	56
58.2730000000	39
58.3030000000	46
58.3330000000	55
58.3630000000	45
58.3930000000	47
58.4230000000	42
58.4530000000	44
58.4830000000	42
58.5130000000	43
58.5430000000	42
58.5730000000	49
58.6030000000	38
58.6330000000	33
58.6630000000	47
58.6930000000	40
58.7230000000	36
58.7530000000	52
58.7830000000	42
58.8130000000	46
58.8430000000	45
58.8730000000	53
58.9030000000	54
58.9330000000	48
58.9630000000	41
58.9930000000	48
59.0230000000	46
59.0530000000	47
59.0830000000	59
59.1130000000	45
59.1430000000	46
59.1730000000	39
59.2030000000	29
59.2330000000	54
59.2630000000	55
59.2930000000	39
59.3230000000	47
59.3530000000	41
59.3830000000	41
59.4130000000	44
59.4430000000	38
59.4730000000	41
59.5030000000	38
59.5330000000	47
59.5630000000	43
59.5930000000	32
59.6230000000	41
59.6530000000	41
59.6830000000	43
59.7130000000	33
59.7430000000	57
59.7730000000	37
59.8030000000	52
59.8330000000	43
59.8630000000	39
59.8930000000	40
59.9230000000	35
59.9530000000	47
59.9830000000	47
60.0130000000	50
60.0430000000	50
60.0730000000	55
60.1030000000	41
60.1330000000	52
60.1630000000	43
60.1930000000	44
60.2230000000	34
60.2530000000	53
60.2830000000	46
60.3130000000	47
60.3430000000	42
60.3730000000	37
60.4030000000	45
60.4330000000	47
60.4630000000	35
60.4930000000	32
60.5230000000	40
60.5530000000	44
60.5830000000	35
60.6130000000	51
60.6430000000	47
60.6730000000	40
60.7030000000	45
60.7330000000	34
60.7630000000	48
60.7930000000	40
60.8230000000	49
60.8530000000	46
60.8830000000	57
60.9130000000	33
60.9430000000	55
60.9730000000	42
61.0030000000	35
61.0330000000	53
61.0630000000	51
61.0930000000	42
61.1230000000	37
61.1530000000	44
61.1830000000	48
61.2130000000	50
61.2430000000	41
61.2730000000	55
61.3030000000	40
61.3330000000	36
61.3630000000	49
61.3930000000	36
61.4230000000	44
61.4530000000	38
61.4830000000	31
61.5130000000	47
61.5430000000	39
61.5730000000	37
61.6030000000	31
61.6330000000	37
61.6630000000	45
61.6930000000	48
61.7230000000	43
61.7530000000	38
61.7830000000	45
61.8130000000	44
61.8430000000	37
61.8730000000	35
61.9030000000	45
61.9330000000	41
61.9630000000	44
61.9930000000	43
62.0230000000	45
62.0530000000	35
62.0830000000	33
62.1130000000	39
62.1430000000	43
62.1730000000	34
62.2030000000	42
62.2330000000	40
62.2630000000	43
62.2930000000	40
62.3230000000	34
62.3530000000	41
62.3830000000	43
62.4130000000	47
62.4430000000	40
62.4730000000	49
62.5030000000	43
62.5330000000	40
62.5630000000	44
62.5930000000	44
62.6230000000	48
62.6530000000	46
62.6830000000	44
62.7130000000	35
62.7430000000	31
62.7730000000	39
62.8030000000	43
62.8330000000	39
62.8630000000	32
62.8930000000	43
62.9230000000	49
62.9530000000	40
62.9830000000	51
63.0130000000	44
63.0430000000	45
63.0730000000	48
63.1030000000	46
63.1330000000	49
63.1630000000	46
63.1930000000	33
63.2230000000	38
63.2530000000	47
63.2830000000	45
63.3130000000	34
63.3430000000	33
63.3730000000	47
63.4030000000	48
63.4330000000	31
63.4630000000	31
63.4930000000	48
63.5230000000	42
63.5530000000	31
63.5830000000	35
63.6130000000	42
63.6430000000	38
63.6730000000	43
63.7030000000	37
63.7330000000	30
63.7630000000	39
63.7930000000	43
63.8230000000	46
63.8530000000	49
63.8830000000	51
63.9130000000	43
63.9430000000	30
63.9730000000	30
64.0030000000	38
64.0330000000	35
64.0630000000	34
64.0930000000	31
64.1230000000	51
64.1530000000	39
64.1830000000	51
64.2130000000	34
64.2430000000	44
64.2730000000	47
64.3030000000	55
64.3330000000	49
64.3630000000	46
64.3930000000	46
64.4230000000	43
64.4530000000	36
64.4830000000	44
64.5130000000	47
64.5430000000	37
64.5730000000	37
64.6030000000	42
64.6330000000	41
64.6630000000	45
64.6930000000	38
64.7230000000	35
64.7530000000	39
64.7830000000	37
64.8130000000	50
64.8430000000	42
64.8730000000	40
64.9030000000	46
64.9330000000	42
64.9630000000	31
64.9930000000	34
65.0230000000	38
65.0530000000	47
65.0830000000	29
65.1130000000	40
65.1430000000	42
65.1730000000	35
65.2030000000	30
65.2330000000	47
65.2630000000	43
65.2930000000	38
65.3230000000	44
65.3530000000	42
65.3830000000	40
65.4130000000	38
65.4430000000	31
65.4730000000	47
65.5030000000	39
65.5330000000	51
65.5630000000	51
65.5930000000	40
65.6230000000	41
65.6530000000	36
65.6830000000	42
65.7130000000	35
65.7430000000	46
65.7730000000	41
65.8030000000	44
65.8330000000	46
65.8630000000	48
65.8930000000	44
65.9230000000	35
65.9530000000	42
65.9830000000	50
66.0130000000	44
66.0430000000	42
66.0730000000	41
66.1030000000	31
66.1330000000	50
66.1630000000	39
66.1930000000	36
66.2230000000	39
66.2530000000	32
66.2830000000	46
66.3130000000	37
66.3430000000	38
66.3730000000	54
66.4030000000	51
66.4330000000	29
66.4630000000	38
66.4930000000	46
66.5230000000	38
66.5530000000	33
66.5830000000	41
66.6130000000	53
66.6430000000	51
66.6730000000	32
66.7030000000	39
66.7330000000	26
66.7630000000	27
66.7930000000	42
66.8230000000	32
66.8530000000	27
66.8830000000	46
66.9130000000	40
66.9430000000	39
66.9730000000	44
67.0030000000	38
67.0330000000	42
67.0630000000	35
67.0930000000	39
67.1230000000	44
67.1530000000	43
67.1830000000	37
67.2130000000	34
67.2430000000	40
67.2730000000	39
67.3030000000	42
67.3330000000	37
67.3630000000	36
67.3930000000	39
67.4230000000	46
67.4530000000	50
67.4830000000	40
67.5130000000	43
67.5430000000	40
67.5730000000	27
67.6030000000	32
67.6330000000	28
67.6630000000	29
67.6930000000	40
67.7230000000	50
67.7530000000	39
67.7830000000	33
67.8130000000	38
67.8430000000	43
67.8730000000	44
67.9030000000	40
67.9330000000	37
67.9630000000	24
67.9930000000	42
68.0230000000	45
68.0530000000	38
68.0830000000	44
68.1130000000	52
68.1430000000	37
68.1730000000	37
68.2030000000	36
68.2330000000	38
68.2630000000	44
68.2930000000	39
68.3230000000	33
68.3530000000	41
68.3830000000	31
68.4130000000	40
68.4430000000	36
68.4730000000	33
68.5030000000	40
68.5330000000	41
68.5630000000	42
68.5930000000	35
68.6230000000	40
68.6530000000	42
68.6830000000	53
68.7130000000	51
68.7430000000	40
68.7730000000	46
68.8030000000	45
68.8330000000	45
68.8630000000	40
68.8930000000	40
68.9230000000	49
68.9530000000	49
68.9830000000	38
69.0130000000	32
69.0430000000	34
69.0730000000	28
69.1030000000	35
69.1330000000	39
69.1630000000	37
69.1930000000	52
69.2230000000	38
69.2530000000	39
69.2830000000	36
69.3130000000	37
69.3430000000	41
69.3730000000	33
69.4030000000	40
69.4330000000	44
69.4630000000	38
69.4930000000	31
69.5230000000	35
69.5530000000	44
69.5830000000	40
69.6130000000	33
69.6430000000	39
69.6730000000	29
69.7030000000	33
69.7330000000	27
69.7630000000	34
69.7930000000	47
69.8230000000	37
69.8530000000	46
69.8830000000	39
69.9130000000	40
69.9430000000	37
69.9730000000	38
70.0030000000	30
70.0330000000	39
70.0630000000	39
70.0930000000	36
70.1230000000	34
70.1530000000	38
70.1830000000	50
70.2130000000	38
70.2430000000	40
70.2730000000	45
70.3030000000	36
70.3330000000	37
70.3630000000	32
70.3930000000	29
70.4230000000	35
70.4530000000	48
70.4830000000	42
70.5130000000	41
70.5430000000	28
70.5730000000	33
70.6030000000	38
70.6330000000	49
70.6630000000	42
70.6930000000	36
70.7230000000	44
70.7530000000	43
70.7830000000	40
70.8130000000	41
70.8430000000	31
70.8730000000	40
70.9030000000	40
70.9330000000	43
70.9630000000	40
70.9930000000	44
71.0230000000	46
71.0530000000	41
71.0830000000	34
71.1130000000	42
71.1430000000	38
71.1730000000	44
71.2030000000	47
71.2330000000	38
71.2630000000	44
71.2930000000	37
71.3230000000	41
71.3530000000	47
71.3830000000	46
71.4130000000	40
71.4430000000	36
71.4730000000	38
71.5030000000	31
71.5330000000	32
71.5630000000	35
71.5930000000	37
71.6230000000	44
71.6530000000	37
71.6830000000	25
71.7130000000	38
71.7430000000	42
71.7730000000	38
71.8030000000	38
71.8330000000	40
71.8630000000	34
71.8930000000	38
71.9230000000	41
71.9530000000	26
71.9830000000	39
72.0130000000	29
72.0430000000	43
72.0730000000	43
72.1030000000	34
72.1330000000	31
72.1630000000	41
72.1930000000	40
72.2230000000	33
72.2530000000	37
72.2830000000	41
72.3130000000	40
72.3430000000	37
72.3730000000	40
72.4030000000	30
72.4330000000	29
72.4630000000	42
72.4930000000	42
72.5230000000	25
72.5530000000	45
72.5830000000	56
72.6130000000	41
72.6430000000	35
72.6730000000	47
72.7030000000	38
72.7330000000	44
72.7630000000	29
72.7930000000	43
72.8230000000	42
72.8530000000	39
72.8830000000	49
72.9130000000	29
72.9430000000	36
72.9730000000	43
73.0030000000	36
73.0330000000	37
73.0630000000	35
73.0930000000	35
73.1230000000	37
73.1530000000	25
73.1830000000	46
73.2130000000	46
73.2430000000	47
73.2730000000	52
73.3030000000	27
73.3330000000	28
73.3630000000	44
73.3930000000	37
73.4230000000	35
73.4530000000	34
73.4830000000	42
73.5130000000	42
73.5430000000	40
73.5730000000	35
73.6030000000	39
73.6330000000	48
73.6630000000	39
73.6930000000	32
73.7230000000	40
73.7530000000	40
73.7830000000	29
73.8130000000	39
73.8430000000	39
73.8730000000	30
73.9030000000	41
73.9330000000	40
73.9630000000	38
73.9930000000	41
74.0230000000	42
74.0530000000	35
74.0830000000	31
74.1130000000	43
74.1430000000	29
74.1730000000	43
74.2030000000	39
74.2330000000	33
74.2630000000	33
74.2930000000	41
74.3230000000	39
74.3530000000	33
74.3830000000	35
74.4130000000	45
74.4430000000	35
74.4730000000	43
74.5030000000	39
74.5330000000	46
74.5630000000	44
74.5930000000	42
74.6230000000	36
74.6530000000	37
74.6830000000	40
74.7130000000	44
74.7430000000	39
74.7730000000	26
74.8030000000	39
74.8330000000	36
74.8630000000	43
74.8930000000	34
74.9230000000	28
74.9530000000	23
74.9830000000	40
75.0130000000	50
75.0430000000	38
75.0730000000	40
75.1030000000	44
75.1330000000	54
75.1630000000	28
75.1930000000	38
75.2230000000	35
75.2530000000	31
75.2830000000	45
75.3130000000	40
75.3430000000	33
75.3730000000	32
75.4030000000	35
75.4330000000	37
75.4630000000	40
75.4930000000	52
75.5230000000	31
75.5530000000	31
75.5830000000	44
75.6130000000	37
75.6430000000	29
75.6730000000	40
75.7030000000	39
75.7330000000	26
75.7630000000	31
75.7930000000	34
75.8230000000	25
75.8530000000	44
75.8830000000	34
75.9130000000	30
75.9430000000	38
75.9730000000	37
76.0030000000	32
76.0330000000	34
76.0630000000	36
76.0930000000	33
76.1230000000	30
76.1530000000	39
76.1830000000	47
76.2130000000	45
76.2430000000	35
76.2730000000	29
76.3030000000	38
76.3330000000	34
76.3630000000	37
76.3930000000	39
76.4230000000	36
76.4530000000	29
76.4830000000	30
76.5130000000	28
76.5430000000	36
76.5730000000	29
76.6030000000	43
76.6330000000	27
76.6630000000	32
76.6930000000	31
76.7230000000	41
76.7530000000	34
76.7830000000	43
76.8130000000	29
76.8430000000	32
76.8730000000	50
76.9030000000	28
76.9330000000	44
76.9630000000	30
76.9930000000	43
77.0230000000	34
77.0530000000	38
77.0830000000	30
77.1130000000	36
77.1430000000	27
77.1730000000	44
77.2030000000	26
77.2330000000	37
77.2630000000	32
77.2930000000	25
77.3230000000	43
77.3530000000	32
77.3830000000	34
77.4130000000	40
77.4430000000	31
77.4730000000	28
77.5030000000	34
77.5330000000	41
77.5630000000	43
77.5930000000	32
77.6230000000	44
77.6530000000	41
77.6830000000	41
77.7130000000	41
77.7430000000	33
77.7730000000	33
77.8030000000	35
77.8330000000	39
77.8630000000	34
77.8930000000	31
77.9230000000	35
77.9530000000	29
77.9830000000	31
78.0130000000	27
78.0430000000	35
78.0730000000	39
78.1030000000	25
78.1330000000	25
78.1630000000	29
78.1930000000	32
78.2230000000	29
78.2530000000	51
78.2830000000	39
78.3130000000	33
78.3430000000	37
78.3730000000	38
78.4030000000	32
78.4330000000	35
78.4630000000	39
78.4930000000	34
78.5230000000	42
78.5530000000	36
78.5830000000	36
78.6130000000	23
78.6430000000	35
78.6730000000	53
78.7030000000	33
78.7330000000	32
78.7630000000	36
78.7930000000	30
78.8230000000	39
78.8530000000	37
78.8830000000	33
78.9130000000	31
78.9430000000	29
78.9730000000	31
79.0030000000	40
79.0330000000	38
79.0630000000	41
79.0930000000	44
79.1230000000	39
79.1530000000	26
79.1830000000	38
79.2130000000	38
79.2430000000	35
79.2730000000	36
79.3030000000	35
79.3330000000	34
79.3630000000	42
79.3930000000	45
79.4230000000	39
79.4530000000	31
79.4830000000	37
79.5130000000	36
79.5430000000	33
79.5730000000	31
79.6030000000	27
79.6330000000	34
79.6630000000	35
79.6930000000	35
79.7230000000	31
79.7530000000	29
79.7830000000	40
79.8130000000	47
79.8430000000	25
79.8730000000	48
79.9030000000	27
79.9330000000	36
79.9630000000	34
79.9930000000	35
80.0230000000	34
80.0530000000	48
80.0830000000	33
80.1130000000	43
80.1430000000	32
80.1730000000	36
80.2030000000	31
80.2330000000	41
80.2630000000	39
80.2930000000	34
80.3230000000	29
80.3530000000	29
80.3830000000	30
80.4130000000	25
80.4430000000	34
80.4730000000	45
80.5030000000	29
80.5330000000	39
80.5630000000	32
80.5930000000	43
80.6230000000	36
80.6530000000	35
80.6830000000	30
80.7130000000	33
80.7430000000	31
80.7730000000	29
80.8030000000	35
80.8330000000	25
80.8630000000	37
80.8930000000	40
80.9230000000	37
80.9530000000	31
80.9830000000	36
81.0130000000	41
81.0430000000	30
81.0730000000	27
81.1030000000	26
81.1330000000	29
81.1630000000	48
81.1930000000	32
81.2230000000	33
81.2530000000	32
81.2830000000	30
81.3130000000	47
81.3430000000	31
81.3730000000	27
81.4030000000	35
81.4330000000	41
81.4630000000	35
81.4930000000	34
81.5230000000	34
81.5530000000	34
81.5830000000	34
81.6130000000	31
81.6430000000	33
81.6730000000	50
81.7030000000	43
81.7330000000	36
81.7630000000	30
81.7930000000	35
81.8230000000	31
81.8530000000	45
81.8830000000	34
81.9130000000	37
81.9430000000	38
81.9730000000	41
82.0030000000	31
82.0330000000	32
82.0630000000	35
82.0930000000	38
82.1230000000	26
82.1530000000	36
82.1830000000	32
82.2130000000	36
82.2430000000	23
82.2730000000	29
82.3030000000	37
82.3330000000	40
82.3630000000	34
82.3930000000	29
82.4230000000	30
82.4530000000	33
82.4830000000	33
82.5130000000	41
82.5430000000	37
82.5730000000	24
82.6030000000	42
82.6330000000	37
82.6630000000	44
82.6930000000	41
82.7230000000	33
82.7530000000	32
82.7830000000	32
82.8130000000	31
82.8430000000	35
82.8730000000	32
82.9030000000	37
82.9330000000	32
82.9630000000	38
82.9930000000	37
83.0230000000	40
83.0530000000	35
83.0830000000	34
83.1130000000	35
83.1430000000	32
83.1730000000	33
83.2030000000	29
83.2330000000	37
83.2630000000	34
83.2930000000	26
83.3230000000	34
83.3530000000	29
83.3830000000	34
83.4130000000	45
83.4430000000	47
83.4730000000	35
83.5030000000	34
83.5330000000	36
83.5630000000	34
83.5930000000	39
83.6230000000	29
83.6530000000	30
83.6830000000	25
83.7130000000	29
83.7430000000	29
83.7730000000	37
83.8030000000	23
83.8330000000	33
83.8630000000	44
83.8930000000	37
83.9230000000	39
83.9530000000	38
83.9830000000	26
84.0130000000	31
84.0430000000	28
84.0730000000	40
84.1030000000	36
84.1330000000	31
84.1630000000	46
84.1930000000	29
84.2230000000	28
84.2530000000	27
84.2830000000	29
84.3130000000	33
84.3430000000	38
84.3730000000	30
84.4030000000	35
84.4330000000	27
84.4630000000	37
84.4930000000	20
84.5230000000	24
84.5530000000	32
84.5830000000	32
84.6130000000	38
84.6430000000	36
84.6730000000	24
84.7030000000	38
84.7330000000	49
84.7630000000	39
84.7930000000	35
84.8230000000	30
84.8530000000	31
84.8830000000	30
84.9130000000	39
84.9430000000	33
84.9730000000	29
85.0030000000	32
85.0330000000	28
85.0630000000	29
85.0930000000	30
85.1230000000	37
85.1530000000	41
85.1830000000	40
85.2130000000	28
85.2430000000	26
85.2730000000	36
85.3030000000	40
85.3330000000	42
85.3630000000	26
85.3930000000	32
85.4230000000	42
85.4530000000	40
85.4830000000	29
85.5130000000	38
85.5430000000	26
85.5730000000	32
85.6030000000	24
85.6330000000	32
85.6630000000	35
85.6930000000	38
85.7230000000	33
85.7530000000	39
85.7830000000	30
85.8130000000	30
85.8430000000	31
85.8730000000	36
85.9030000000	33
85.9330000000	33
85.9630000000	30
85.9930000000	24
86.0230000000	33
86.0530000000	49
86.0830000000	44
86.1130000000	37
86.1430000000	42
86.1730000000	28
86.2030000000	33
86.2330000000	29
86.2630000000	31
86.2930000000	32
86.3230000000	32
86.3530000000	25
86.3830000000	32
86.4130000000	30
86.4430000000	30
86.4730000000	36
86.5030000000	30
86.5330000000	27
86.5630000000	37
86.5930000000	40
86.6230000000	36
86.6530000000	34
86.6830000000	39
86.7130000000	34
86.7430000000	31
86.7730000000	31
86.8030000000	29
86.8330000000	41
86.8630000000	40
86.8930000000	31
86.9230000000	27
86.9530000000	35
86.9830000000	36
87.0130000000	35
87.0430000000	34
87.0730000000	33
87.1030000000	33
87.1330000000	32
87.1630000000	30
87.1930000000	34
87.2230000000	39
87.2530000000	28
87.2830000000	22
87.3130000000	37
87.3430000000	30
87.3730000000	29
87.4030000000	34
87.4330000000	30
87.4630000000	39
87.4930000000	44
87.5230000000	32
87.5530000000	35
87.5830000000	30
87.6130000000	29
87.6430000000	37
87.6730000000	38
87.7030000000	36
87.7330000000	33
87.7630000000	40
87.7930000000	34
87.8230000000	32
87.8530000000	34
87.8830000000	29
87.9130000000	42
87.9430000000	32
87.9730000000	46
88.0030000000	47
88.0330000000	35
88.0630000000	41
88.0930000000	29
88.1230000000	29
88.1530000000	28
88.1830000000	29
88.2130000000	32
88.2430000000	34
88.2730000000	30
88.3030000000	37
88.3330000000	34
88.3630000000	36
88.3930000000	27
88.4230000000	26
88.4530000000	40
88.4830000000	34
88.5130000000	18
88.5430000000	35
88.5730000000	24
88.6030000000	35
88.6330000000	36
88.6630000000	31
88.6930000000	37
88.7230000000	42
88.7530000000	33
88.7830000000	35
88.8130000000	42
88.8430000000	28
88.8730000000	27
88.9030000000	25
88.9330000000	35
88.9630000000	38
88.9930000000	25
89.0230000000	26
89.0530000000	20
89.0830000000	41
89.1130000000	40
89.1430000000	41
89.1730000000	31
89.2030000000	22
89.2330000000	30
89.2630000000	32
89.2930000000	31
89.3230000000	29
89.3530000000	30
89.3830000000	26
89.4130000000	33
89.4430000000	37
89.4730000000	33
89.5030000000	35
89.5330000000	37
89.5630000000	28
89.5930000000	35
89.6230000000	33
89.6530000000	34
89.6830000000	38
89.7130000000	34
89.7430000000	31
89.7730000000	28
89.8030000000	32
89.8330000000	35
89.8630000000	34
89.8930000000	34
89.9230000000	27
89.9530000000	36
89.9830000000	45
90.0130000000	47
90.0430000000	40
90.0730000000	22
90.1030000000	32
90.1330000000	40
90.1630000000	45
90.1930000000	29
90.2230000000	40
90.2530000000	39
90.2830000000	33
90.3130000000	36
90.3430000000	40
90.3730000000	30
90.4030000000	50
90.4330000000	32
90.4630000000	38
90.4930000000	37
90.5230000000	35
90.5530000000	33
90.5830000000	44
90.6130000000	33
90.6430000000	37
90.6730000000	34
90.7030000000	27
90.7330000000	32
90.7630000000	26
90.7930000000	29
90.8230000000	33
90.8530000000	27
90.8830000000	31
90.9130000000	26
90.9430000000	36
90.9730000000	37
91.0030000000	35
91.0330000000	28
91.0630000000	29
91.0930000000	33
91.1230000000	31
91.1530000000	42
91.1830000000	40
91.2130000000	30
91.2430000000	39
91.2730000000	37
91.3030000000	48
91.3330000000	38
91.3630000000	32
91.3930000000	44
91.4230000000	37
91.4530000000	36
91.4830000000	32
91.5130000000	30
91.5430000000	31
91.5730000000	38
91.6030000000	39
91.6330000000	31
91.6630000000	32
91.6930000000	37
91.7230000000	29
91.7530000000	40
91.7830000000	42
91.8130000000	30
91.8430000000	40
91.8730000000	44
91.9030000000	34
91.9330000000	31
91.9630000000	46
91.9930000000	38
92.0230000000	38
92.0530000000	28
92.0830000000	38
92.1130000000	28
92.1430000000	40
92.1730000000	37
92.2030000000	32
92.2330000000	35
92.2630000000	31
92.2930000000	44
92.3230000000	27
92.3530000000	37
92.3830000000	29
92.4130000000	36
92.4430000000	40
92.4730000000	35
92.5030000000	29
92.5330000000	27
92.5630000000	38
92.5930000000	36
92.6230000000	44
92.6530000000	34
92.6830000000	33
92.7130000000	30
92.7430000000	41
92.7730000000	43
92.8030000000	33
92.8330000000	27
92.8630000000	32
92.8930000000	37
92.9230000000	34
92.9530000000	31
92.9830000000	39
93.0130000000	42
93.0430000000	46
93.0730000000	35
93.1030000000	29
93.1330000000	27
93.1630000000	33
93.1930000000	36
93.2230000000	35
93.2530000000	40
93.2830000000	46
93.3130000000	42
93.3430000000	28
93.3730000000	31
93.4030000000	28
93.4330000000	41
93.4630000000	28
93.4930000000	31
93.5230000000	38
93.5530000000	31
93.5830000000	34
93.6130000000	25
93.6430000000	35
93.6730000000	48
93.7030000000	41
93.7330000000	31
93.7630000000	49
93.7930000000	38
93.8230000000	30
93.8530000000	29
93.8830000000	33
93.9130000000	39
93.9430000000	44
93.9730000000	45
94.0030000000	45
94.0330000000	31
94.0630000000	39
94.0930000000	38
94.1230000000	29
94.1530000000	34
94.1830000000	44
94.2130000000	44
94.2430000000	44
94.2730000000	35
94.3030000000	36
94.3330000000	40
94.3630000000	35
94.3930000000	41
94.4230000000	40
94.4530000000	47
94.4830000000	42
94.5130000000	36
94.5430000000	38
94.5730000000	30
94.6030000000	39
94.6330000000	40
94.6630000000	39
94.6930000000	45
94.7230000000	33
94.7530000000	20
94.7830000000	32
94.8130000000	37
94.8430000000	31
94.8730000000	34
94.9030000000	43
94.9330000000	35
94.9630000000	34
94.9930000000	33
95.0230000000	33
95.0530000000	37
95.0830000000	40
95.1130000000	32
95.1430000000	31
95.1730000000	35
95.2030000000	34
95.2330000000	43
95.2630000000	44
95.2930000000	39
95.3230000000	33
95.3530000000	27
95.3830000000	36
95.4130000000	42
95.4430000000	44
95.4730000000	36
95.5030000000	44
95.5330000000	37
95.5630000000	39
95.5930000000	34
95.6230000000	48
95.6530000000	32
95.6830000000	41
95.7130000000	43
95.7430000000	34
95.7730000000	41
95.8030000000	45
95.8330000000	39
95.8630000000	45
95.8930000000	32
95.9230000000	29
95.9530000000	30
95.9830000000	34
96.0130000000	36
96.0430000000	39
96.0730000000	41
96.1030000000	31
96.1330000000	29
96.1630000000	47
96.1930000000	28
96.2230000000	26
96.2530000000	35
96.2830000000	26
96.3130000000	35
96.3430000000	22
96.3730000000	40
96.4030000000	35
96.4330000000	28
96.4630000000	29
96.4930000000	33
96.5230000000	41
96.5530000000	38
96.5830000000	31
96.6130000000	32
96.6430000000	36
96.6730000000	32
96.7030000000	36
96.7330000000	33
96.7630000000	24
96.7930000000	49
96.8230000000	41
96.8530000000	25
96.8830000000	34
96.9130000000	34
96.9430000000	37
96.9730000000	31
97.0030000000	40
97.0330000000	34
97.0630000000	27
97.0930000000	29
97.1230000000	32
97.1530000000	32
97.1830000000	37
97.2130000000	32
97.2430000000	29
97.2730000000	31
97.3030000000	33
97.3330000000	42
97.3630000000	40
97.3930000000	31
97.4230000000	31
97.4530000000	31
97.4830000000	25
97.5130000000	31
97.5430000000	32
97.5730000000	32
97.6030000000	26
97.6330000000	33
97.6630000000	33
97.6930000000	38
97.7230000000	30
97.7530000000	33
97.7830000000	32
97.8130000000	38
97.8430000000	28
97.8730000000	27
97.9030000000	24
97.9330000000	31
97.9630000000	38
97.9930000000	46
98.0230000000	30
98.0530000000	34
98.0830000000	31
98.1130000000	26
98.1430000000	37
98.1730000000	24
98.2030000000	27
98.2330000000	45
98.2630000000	38
98.2930000000	29
98.3230000000	39
98.3530000000	48
98.3830000000	27
98.4130000000	22
98.4430000000	35
98.4730000000	39
98.5030000000	28
98.5330000000	36
98.5630000000	43
98.5930000000	31
98.6230000000	39
98.6530000000	37
98.6830000000	27
98.7130000000	25
98.7430000000	26
98.7730000000	32
98.8030000000	39
98.8330000000	43
98.8630000000	45
98.8930000000	29
98.9230000000	37
98.9530000000	28
98.9830000000	38
99.0130000000	38
99.0430000000	35
99.0730000000	39
99.1030000000	33
99.1330000000	33
99.1630000000	32
99.1930000000	30
99.2230000000	39
99.2530000000	35
99.2830000000	33
99.3130000000	35
99.3430000000	23
99.3730000000	37
99.4030000000	25
99.4330000000	30
99.4630000000	37
99.4930000000	33
99.5230000000	33
99.5530000000	31
99.5830000000	35
99.6130000000	33
99.6430000000	43
99.6730000000	33
99.7030000000	35
99.7330000000	38
99.7630000000	31
99.7930000000	45
99.8230000000	26
99.8530000000	34
99.8830000000	31
99.9130000000	24
99.9430000000	38
99.9730000000	39
100.0030000000	29
100.0330000000	41
100.0630000000	37
100.0930000000	34
100.1230000000	46
100.1530000000	47
100.1830000000	37
100.2130000000	37
100.2430000000	44
100.2730000000	36
100.3030000000	35
100.3330000000	23
100.3630000000	28
100.3930000000	36
100.4230000000	38
100.4530000000	37
100.4830000000	39
100.5130000000	28
100.5430000000	42
100.5730000000	33
100.6030000000	45
100.6330000000	38
100.6630000000	41
100.6930000000	35
100.7230000000	38
100.7530000000	33
100.7830000000	30
100.8130000000	29
100.8430000000	36
100.8730000000	44
100.9030000000	30
100.9330000000	32
100.9630000000	50
100.9930000000	33
101.0230000000	27
101.0530000000	33
101.0830000000	41
101.1130000000	48
101.1430000000	35
101.1730000000	37
101.2030000000	35
101.2330000000	29
101.2630000000	37
101.2930000000	39
101.3230000000	42
101.3530000000	36
101.3830000000	29
101.4130000000	40
101.4430000000	40
101.4730000000	27
101.5030000000	21
101.5330000000	30
101.5630000000	32
101.5930000000	33
101.6230000000	33
101.6530000000	31
101.6830000000	27
101.7130000000	17
101.7430000000	31
101.7730000000	41
101.8030000000	39
101.8330000000	41
101.8630000000	35
101.8930000000	38
101.9230000000	43
101.9530000000	29
101.9830000000	33
102.0130000000	44
102.0430000000	33
102.0730000000	34
102.1030000000	18
102.1330000000	38
102.1630000000	31
102.1930000000	45
102.2230000000	30
102.2530000000	32
102.2830000000	37
102.3130000000	43
102.3430000000	34
102.3730000000	40
102.4030000000	30
102.4330000000	43
102.4630000000	40
102.4930000000	35
102.5230000000	31
102.5530000000	29
102.5830000000	29
102.6130000000	25
102.6430000000	32
102.6730000000	34
102.7030000000	29
102.7330000000	30
102.7630000000	39
102.7930000000	34
102.8230000000	21
102.8530000000	31
102.8830000000	25
102.9130000000	41
102.9430000000	34
102.9730000000	25
103.0030000000	25
103.0330000000	30
103.0630000000	38
103.0930000000	33
103.1230000000	35
103.1530000000	32
103.1830000000	27
103.2130000000	31
103.2430000000	41
103.2730000000	45
103.3030000000	39
103.3330000000	34
103.3630000000	32
103.3930000000	33
103.4230000000	28
103.4530000000	29
103.4830000000	39
103.5130000000	42
103.5430000000	33
103.5730000000	30
103.6030000000	28
103.6330000000	33
103.6630000000	21
103.6930000000	42
103.7230000000	39
103.7530000000	37
103.7830000000	39
103.8130000000	32
103.8430000000	38
103.8730000000	33
103.9030000000	39
103.9330000000	46
103.9630000000	25
103.9930000000	38
104.0230000000	39
104.0530000000	32
104.0830000000	36
104.1130000000	46
104.1430000000	36
104.1730000000	28
104.2030000000	28
104.2330000000	29
104.2630000000	39
104.2930000000	29
104.3230000000	24
104.3530000000	23
104.3830000000	41
104.4130000000	28
104.4430000000	40
104.4730000000	35
104.5030000000	31
104.5330000000	33
104.5630000000	43
104.5930000000	42
104.6230000000	36
104.6530000000	29
104.6830000000	38
104.7130000000	41
104.7430000000	36
104.7730000000	30
104.8030000000	28
104.8330000000	32
104.8630000000	39
104.8930000000	32
104.9230000000	34
104.9530000000	43
104.9830000000	34
105.0130000000	34
105.0430000000	40
105.0730000000	36
105.1030000000	36
105.1330000000	36
105.1630000000	28
105.1930000000	28
105.2230000000	36
105.2530000000	23
105.2830000000	34
105.3130000000	46
105.3430000000	31
105.3730000000	34
105.4030000000	34
105.4330000000	33
105.4630000000	31
105.4930000000	40
105.5230000000	46
105.5530000000	36
105.5830000000	37
105.6130000000	36
105.6430000000	26
105.6730000000	31
105.7030000000	42
105.7330000000	26
105.7630000000	32
105.7930000000	41
105.8230000000	39
105.8530000000	27
105.8830000000	32
105.9130000000	26
105.9430000000	30
105.9730000000	27
106.0030000000	24
106.0330000000	41
106.0630000000	26
106.0930000000	25
106.1230000000	33
106.1530000000	24
106.1830000000	34
106.2130000000	35
106.2430000000	35
106.2730000000	45
106.3030000000	31
106.3330000000	41
106.3630000000	31
106.3930000000	30
106.4230000000	29
106.4530000000	27
106.4830000000	23
106.5130000000	34
106.5430000000	36
106.5730000000	22
106.6030000000	31
106.6330000000	37
106.6630000000	25
106.6930000000	40
106.7230000000	40
106.7530000000	40
106.7830000000	39
106.8130000000	34
106.8430000000	29
106.8730000000	34
106.9030000000	41
106.9330000000	40
106.9630000000	31
106.9930000000	30
107.0230000000	36
107.0530000000	34
107.0830000000	29
107.1130000000	42
107.1430000000	33
107.1730000000	24
107.2030000000	27
107.2330000000	33
107.2630000000	27
107.2930000000	29
107.3230000000	26
107.3530000000	31
107.3830000000	34
107.4130000000	41
107.4430000000	49
107.4730000000	40
107.5030000000	27
107.5330000000	30
107.5630000000	27
107.5930000000	40
107.6230000000	35
107.6530000000	30
107.6830000000	37
107.7130000000	33
107.7430000000	35
107.7730000000	34
107.8030000000	27
107.8330000000	30
107.8630000000	34
107.8930000000	37
107.9230000000	34
107.9530000000	27
107.9830000000	30
108.0130000000	30
108.0430000000	26
108.0730000000	49
108.1030000000	28
108.1330000000	30
108.1630000000	33
108.1930000000	42
108.2230000000	32
108.2530000000	32
108.2830000000	27
108.3130000000	34
108.3430000000	29
108.3730000000	32
108.4030000000	31
108.4330000000	25
108.4630000000	30
108.4930000000	42
108.5230000000	36
108.5530000000	32
108.5830000000	41
108.6130000000	35
108.6430000000	32
108.6730000000	31
108.7030000000	28
108.7330000000	31
108.7630000000	28
108.7930000000	38
108.8230000000	22
108.8530000000	25
108.8830000000	35
108.9130000000	44
108.9430000000	24
108.9730000000	46
109.0030000000	26
109.0330000000	40
109.0630000000	36
109.0930000000	36
109.1230000000	34
109.1530000000	26
109.1830000000	29
109.2130000000	25
109.2430000000	29
109.2730000000	24
109.3030000000	33
109.3330000000	32
109.3630000000	24
109.3930000000	36
109.4230000000	32
109.4530000000	34
109.4830000000	35
109.5130000000	30
109.5430000000	46
109.5730000000	18
109.6030000000	32
109.6330000000	35
109.6630000000	32
109.6930000000	30
109.7230000000	30
109.7530000000	32
109.7830000000	32
109.8130000000	28
109.8430000000	31
109.8730000000	31
109.9030000000	25
109.9330000000	35
109.9630000000	35
109.9930000000	43
110.0230000000	41
110.0530000000	36
110.0830000000	35
110.1130000000	38
110.1430000000	41
110.1730000000	38
110.2030000000	29
110.2330000000	39
110.2630000000	29
110.2930000000	32
110.3230000000	43
110.3530000000	38
110.3830000000	30
110.4130000000	30
110.4430000000	33
110.4730000000	34
110.5030000000	42
110.5330000000	29
110.5630000000	39
110.5930000000	40
110.6230000000	34
110.6530000000	32
110.6830000000	27
110.7130000000	37
110.7430000000	33
110.7730000000	29
110.8030000000	26
110.8330000000	31
110.8630000000	37
110.8930000000	32
110.9230000000	48
110.9530000000	46
110.9830000000	37
111.0130000000	34
111.0430000000	32
111.0730000000	36
111.1030000000	30
111.1330000000	29
111.1630000000	36
111.1930000000	34
111.2230000000	30
111.2530000000	31
111.2830000000	27
111.3130000000	32
111.3430000000	33
111.3730000000	41
111.4030000000	40
111.4330000000	43
111.4630000000	37
111.4930000000	30
111.5230000000	38
111.5530000000	33
111.5830000000	24
111.6130000000	39
111.6430000000	35
111.6730000000	21
111.7030000000	28
111.7330000000	37
111.7630000000	38
111.7930000000	32
111.8230000000	36
111.8530000000	31
111.8830000000	31
111.9130000000	28
111.9430000000	42
111.9730000000	32
112.0030000000	39
112.0330000000	42
112.0630000000	23
112.0930000000	28
112.1230000000	36
112.1530000000	38
112.1830000000	27
112.2130000000	38
112.2430000000	38
112.2730000000	31
112.3030000000	36
112.3330000000	40
112.3630000000	33
112.3930000000	27
112.4230000000	43
112.4530000000	27
112.4830000000	33
112.5130000000	37
112.5430000000	37
112.5730000000	41
112.6030000000	36
112.6330000000	34
112.6630000000	34
112.6930000000	32
112.7230000000	31
112.7530000000	34
112.7830000000	39
112.8130000000	36
112.8430000000	29
112.8730000000	38
112.9030000000	34
112.9330000000	30
112.9630000000	29
112.9930000000	49
113.0230000000	32
113.0530000000	34
113.0830000000	38
113.1130000000	38
113.1430000000	25
113.1730000000	30
113.2030000000	32
113.2330000000	33
113.2630000000	32
113.2930000000	46
113.3230000000	37
113.3530000000	34
113.3830000000	37
113.4130000000	33
113.4430000000	30
113.4730000000	32
113.5030000000	31
113.5330000000	38
113.5630000000	37
113.5930000000	40
113.6230000000	36
113.6530000000	28
113.6830000000	35
113.7130000000	39
113.7430000000	29
113.7730000000	38
113.8030000000	34
113.8330000000	38
113.8630000000	32
113.8930000000	28
113.9230000000	42
113.9530000000	27
113.9830000000	26
114.0130000000	37
114.0430000000	37
114.0730000000	47
114.1030000000	36
114.1330000000	32
114.1630000000	36
114.1930000000	28
114.2230000000	30
114.2530000000	32
114.2830000000	31
114.3130000000	36
114.3430000000	42
114.3730000000	42
114.4030000000	25
114.4330000000	35
114.4630000000	1
114.4930000000	1
114.5230000000	1
114.5530000000	1
114.5830000000	1
