0.3130000000	1
0.3430000000	1
0.3730000000	1
0.4030000000	1
0.4330000000	1
0.4630000000	1
0.4930000000	1
0.5230000000	1
0.5530000000	1
0.5830000000	1
0.6130000000	3
0.6430000000	1
0.6730000000	1
0.7030000000	1
0.7330000000	1
0.7630000000	1
0.7930000000	1
0.8230000000	1
0.8530000000	1
0.8830000000	1
0.9130000000	1
0.9430000000	1
0.9730000000	1
1.0030000000	2
1.0330000000	1
1.0630000000	1
1.0930000000	1
1.1230000000	2
1.1530000000	1
1.1830000000	1
1.2130000000	2
1.2430000000	1
1.2730000000	2
1.3030000000	1
1.3330000000	1
1.3630000000	1
1.3930000000	2
1.4230000000	1
1.4530000000	1
1.4830000000	1
1.5130000000	1
1.5430000000	3
1.5730000000	2
1.6030000000	1
1.6330000000	1
1.6630000000	1
1.6930000000	2
1.7230000000	3
1.7530000000	2
1.7830000000	2
1.8130000000	1
1.8430000000	1
1.8730000000	2
1.9030000000	2
1.9330000000	1
1.9630000000	1
1.9930000000	1
2.0230000000	2
2.0530000000	2
2.0830000000	1
2.1130000000	2
2.1430000000	2
2.1730000000	1
2.2030000000	1
2.2330000000	2
2.2630000000	1
2.2930000000	2
2.3230000000	1
2.3530000000	1
2.3830000000	2
2.4130000000	3
2.4430000000	2
2.4730000000	2
2.5030000000	3
2.5330000000	2
2.5630000000	1
2.5930000000	1
2.6230000000	1
2.6530000000	2
2.6830000000	1
2.7130000000	1
2.7430000000	1
2.7730000000	1
2.8030000000	2
2.8330000000	1
2.8630000000	1
2.8930000000	2
2.9230000000	4
2.9530000000	1
2.9830000000	1
3.0130000000	1
3.0430000000	1
3.0730000000	2
3.1030000000	4
3.1330000000	2
3.1630000000	1
3.1930000000	1
3.2230000000	1
3.2530000000	2
3.2830000000	2
3.3130000000	1
3.3430000000	1
3.3730000000	2
3.4030000000	1
3.4330000000	1
3.4630000000	2
3.4930000000	2
3.5230000000	1
3.5530000000	1
3.5830000000	2
3.6130000000	1
3.6430000000	2
3.6730000000	2
3.7030000000	2
3.7330000000	1
3.7630000000	3
3.7930000000	4
3.8230000000	1
3.8530000000	5
3.8830000000	6
3.9130000000	2
3.9430000000	2
3.9730000000	3
4.0030000000	3
4.0330000000	1
4.0630000000	2
4.0930000000	4
4.1230000000	2
4.1530000000	2
4.1830000000	7
4.2130000000	2
4.2430000000	2
4.2730000000	3
4.3030000000	4
4.3330000000	9
4.3630000000	3
4.3930000000	6
4.4230000000	8
4.4530000000	13
4.4830000000	20
4.5130000000	22
4.5430000000	38
4.5730000000	66
4.6030000000	69
4.6330000000	96
4.6630000000	146
4.6930000000	119
4.7230000000	151
4.7530000000	131
4.7830000000	143
4.8130000000	145
4.8430000000	155
4.8730000000	142
4.9030000000	139
4.9330000000	159
4.9630000000	154
4.9930000000	151
5.0230000000	159
5.0530000000	164
5.0830000000	152
5.1130000000	150
5.1430000000	159
5.1730000000	143
5.2030000000	158
5.2330000000	147
5.2630000000	116
5.2930000000	131
5.3230000000	158
5.3530000000	149
5.3830000000	157
5.4130000000	134
5.4430000000	155
5.4730000000	161
5.5030000000	147
5.5330000000	165
5.5630000000	179
5.5930000000	173
5.6230000000	143
5.6530000000	174
5.6830000000	150
5.7130000000	160
5.7430000000	159
5.7730000000	149
5.8030000000	155
5.8330000000	161
5.8630000000	155
5.8930000000	168
5.9230000000	145
5.9530000000	143
5.9830000000	161
6.0130000000	140
6.0430000000	165
6.0730000000	140
6.1030000000	153
6.1330000000	150
6.1630000000	168
6.1930000000	167
6.2230000000	150
6.2530000000	166
6.2830000000	163
6.3130000000	155
6.3430000000	158
6.3730000000	164
6.4030000000	167
6.4330000000	159
6.4630000000	167
6.4930000000	164
6.5230000000	171
6.5530000000	154
6.5830000000	162
6.6130000000	159
6.6430000000	190
6.6730000000	154
6.7030000000	152
6.7330000000	139
6.7630000000	165
6.7930000000	147
6.8230000000	149
6.8530000000	168
6.8830000000	161
6.9130000000	156
6.9430000000	146
6.9730000000	169
7.0030000000	148
7.0330000000	161
7.0630000000	137
7.0930000000	156
7.1230000000	160
7.1530000000	162
7.1830000000	149
7.2130000000	163
7.2430000000	180
7.2730000000	142
7.3030000000	151
7.3330000000	150
7.3630000000	168
7.3930000000	170
7.4230000000	169
7.4530000000	163
7.4830000000	179
7.5130000000	173
7.5430000000	163
7.5730000000	155
7.6030000000	160
7.6330000000	153
7.6630000000	160
7.6930000000	159
7.7230000000	152
7.7530000000	164
7.7830000000	171
7.8130000000	179
7.8430000000	170
7.8730000000	156
7.9030000000	167
7.9330000000	181
7.9630000000	150
7.9930000000	133
8.0230000000	178
8.0530000000	161
8.0830000000	158
8.1130000000	156
8.1430000000	160
8.1730000000	157
8.2030000000	164
8.2330000000	169
8.2630000000	148
8.2930000000	134
8.3230000000	156
8.3530000000	164
8.3830000000	160
8.4130000000	133
8.4430000000	168
8.4730000000	159
8.5030000000	165
8.5330000000	173
8.5630000000	169
8.5930000000	162
8.6230000000	157
8.6530000000	167
8.6830000000	139
8.7130000000	135
8.7430000000	165
8.7730000000	183
8.8030000000	148
8.8330000000	153
8.8630000000	165
8.8930000000	164
8.9230000000	155
8.9530000000	140
8.9830000000	157
9.0130000000	161
9.0430000000	151
9.0730000000	172
9.1030000000	164
9.1330000000	169
9.1630000000	154
9.1930000000	177
9.2230000000	129
9.2530000000	140
9.2830000000	181
9.3130000000	134
9.3430000000	163
9.3730000000	160
9.4030000000	164
9.4330000000	155
9.4630000000	178
9.4930000000	164
9.5230000000	166
9.5530000000	170
9.5830000000	154
9.6130000000	167
9.6430000000	151
9.6730000000	142
9.7030000000	133
9.7330000000	160
9.7630000000	168
9.7930000000	158
9.8230000000	165
9.8530000000	186
9.8830000000	164
9.9130000000	174
9.9430000000	182
9.9730000000	172
10.0030000000	181
10.0330000000	153
10.0630000000	176
10.0930000000	158
10.1230000000	170
10.1530000000	170
10.1830000000	144
10.2130000000	161
10.2430000000	170
10.2730000000	169
10.3030000000	158
10.3330000000	162
10.3630000000	178
10.3930000000	175
10.4230000000	144
10.4530000000	171
10.4830000000	171
10.5130000000	156
10.5430000000	146
10.5730000000	168
10.6030000000	156
10.6330000000	182
10.6630000000	166
10.6930000000	176
10.7230000000	148
10.7530000000	165
10.7830000000	173
10.8130000000	156
10.8430000000	171
10.8730000000	134
10.9030000000	163
10.9330000000	169
10.9630000000	152
10.9930000000	164
11.0230000000	156
11.0530000000	164
11.0830000000	153
11.1130000000	147
11.1430000000	150
11.1730000000	152
11.2030000000	162
11.2330000000	158
11.2630000000	136
11.2930000000	161
11.3230000000	187
11.3530000000	178
11.3830000000	170
11.4130000000	154
11.4430000000	162
11.4730000000	152
11.5030000000	159
11.5330000000	139
11.5630000000	178
11.5930000000	156
11.6230000000	184
11.6530000000	163
11.6830000000	168
11.7130000000	162
11.7430000000	171
11.7730000000	173
11.8030000000	162
11.8330000000	144
11.8630000000	142
11.8930000000	158
11.9230000000	148
11.9530000000	171
11.9830000000	161
12.0130000000	152
12.0430000000	161
12.0730000000	162
12.1030000000	170
12.1330000000	174
12.1630000000	156
12.1930000000	171
12.2230000000	173
12.2530000000	193
12.2830000000	187
12.3130000000	162
12.3430000000	157
12.3730000000	167
12.4030000000	187
12.4330000000	166
12.4630000000	160
12.4930000000	163
12.5230000000	177
12.5530000000	167
12.5830000000	168
12.6130000000	165
12.6430000000	149
12.6730000000	157
12.7030000000	185
12.7330000000	174
12.7630000000	184
12.7930000000	171
12.8230000000	178
12.8530000000	169
12.8830000000	129
12.9130000000	159
12.9430000000	176
12.9730000000	159
13.0030000000	179
13.0330000000	184
13.0630000000	164
13.0930000000	168
13.1230000000	172
13.1530000000	170
13.1830000000	179
13.2130000000	157
13.2430000000	155
13.2730000000	170
13.3030000000	167
13.3330000000	168
13.3630000000	148
13.3930000000	193
13.4230000000	169
13.4530000000	155
13.4830000000	163
13.5130000000	162
13.5430000000	158
13.5730000000	163
13.6030000000	130
13.6330000000	155
13.6630000000	169
13.6930000000	152
13.7230000000	153
13.7530000000	186
13.7830000000	164
13.8130000000	157
13.8430000000	147
13.8730000000	148
13.9030000000	163
13.9330000000	157
13.9630000000	162
13.9930000000	163
14.0230000000	161
14.0530000000	174
14.0830000000	157
14.1130000000	146
14.1430000000	151
14.1730000000	151
14.2030000000	168
14.2330000000	146
14.2630000000	145
14.2930000000	135
14.3230000000	164
14.3530000000	162
14.3830000000	160
14.4130000000	148
14.4430000000	149
14.4730000000	177
14.5030000000	159
14.5330000000	171
14.5630000000	162
14.5930000000	176
14.6230000000	175
14.6530000000	165
14.6830000000	162
14.7130000000	183
14.7430000000	153
14.7730000000	173
14.8030000000	169
14.8330000000	151
14.8630000000	168
14.8930000000	200
14.9230000000	162
14.9530000000	157
14.9830000000	187
15.0130000000	175
15.0430000000	185
15.0730000000	176
15.1030000000	184
15.1330000000	180
15.1630000000	157
15.1930000000	158
15.2230000000	173
15.2530000000	152
15.2830000000	154
15.3130000000	187
15.3430000000	156
15.3730000000	173
15.4030000000	137
15.4330000000	163
15.4630000000	194
15.4930000000	187
15.5230000000	172
15.5530000000	182
15.5830000000	170
15.6130000000	175
15.6430000000	176
15.6730000000	191
15.7030000000	161
15.7330000000	193
15.7630000000	156
15.7930000000	159
15.8230000000	204
15.8530000000	161
15.8830000000	179
15.9130000000	167
15.9430000000	161
15.9730000000	163
16.0030000000	191
16.0330000000	178
16.0630000000	177
16.0930000000	188
16.1230000000	156
16.1530000000	164
16.1830000000	162
16.2130000000	153
16.2430000000	151
16.2730000000	168
16.3030000000	161
16.3330000000	173
16.3630000000	182
16.3930000000	168
16.4230000000	162
16.4530000000	179
16.4830000000	175
16.5130000000	190
16.5430000000	148
16.5730000000	172
16.6030000000	180
16.6330000000	196
16.6630000000	195
16.6930000000	150
16.7230000000	196
16.7530000000	189
16.7830000000	161
16.8130000000	153
16.8430000000	176
16.8730000000	152
16.9030000000	164
16.9330000000	180
16.9630000000	164
16.9930000000	190
17.0230000000	201
17.0530000000	192
17.0830000000	170
17.1130000000	191
17.1430000000	168
17.1730000000	163
17.2030000000	152
17.2330000000	168
17.2630000000	196
17.2930000000	178
17.3230000000	166
17.3530000000	154
17.3830000000	162
17.4130000000	166
17.4430000000	183
17.4730000000	185
17.5030000000	178
17.5330000000	186
17.5630000000	195
17.5930000000	188
17.6230000000	180
17.6530000000	186
17.6830000000	182
17.7130000000	180
17.7430000000	176
17.7730000000	180
17.8030000000	189
17.8330000000	174
17.8630000000	163
17.8930000000	188
17.9230000000	188
17.9530000000	167
17.9830000000	157
18.0130000000	159
18.0430000000	184
18.0730000000	196
18.1030000000	178
18.1330000000	155
18.1630000000	176
18.1930000000	181
18.2230000000	152
18.2530000000	174
18.2830000000	181
18.3130000000	165
18.3430000000	173
18.3730000000	160
18.4030000000	173
18.4330000000	166
18.4630000000	166
18.4930000000	193
18.5230000000	154
18.5530000000	171
18.5830000000	175
18.6130000000	170
18.6430000000	153
18.6730000000	184
18.7030000000	184
18.7330000000	196
18.7630000000	187
18.7930000000	183
18.8230000000	165
18.8530000000	180
18.8830000000	169
18.9130000000	202
18.9430000000	196
18.9730000000	185
19.0030000000	203
19.0330000000	197
19.0630000000	212
19.0930000000	176
19.1230000000	183
19.1530000000	182
19.1830000000	192
19.2130000000	194
19.2430000000	169
19.2730000000	208
19.3030000000	185
19.3330000000	208
19.3630000000	184
19.3930000000	185
19.4230000000	176
19.4530000000	191
19.4830000000	196
19.5130000000	170
19.5430000000	193
19.5730000000	185
19.6030000000	198
19.6330000000	189
19.6630000000	173
19.6930000000	194
19.7230000000	194
19.7530000000	210
19.7830000000	193
19.8130000000	217
19.8430000000	187
19.8730000000	194
19.9030000000	218
19.9330000000	208
19.9630000000	199
19.9930000000	185
20.0230000000	206
20.0530000000	199
20.0830000000	198
20.1130000000	204
20.1430000000	196
20.1730000000	221
20.2030000000	196
20.2330000000	190
20.2630000000	197
20.2930000000	200
20.3230000000	195
20.3530000000	236
20.3830000000	185
20.4130000000	213
20.4430000000	181
20.4730000000	224
20.5030000000	191
20.5330000000	206
20.5630000000	225
20.5930000000	221
20.6230000000	217
20.6530000000	230
20.6830000000	229
20.7130000000	212
20.7430000000	202
20.7730000000	202
20.8030000000	205
20.8330000000	201
20.8630000000	205
20.8930000000	230
20.9230000000	203
20.9530000000	215
20.9830000000	214
21.0130000000	217
21.0430000000	209
21.0730000000	204
21.1030000000	237
21.1330000000	223
21.1630000000	237
21.1930000000	212
21.2230000000	219
21.2530000000	211
21.2830000000	241
21.3130000000	232
21.3430000000	225
21.3730000000	218
21.4030000000	249
21.4330000000	216
21.4630000000	216
21.4930000000	229
21.5230000000	208
21.5530000000	247
21.5830000000	225
21.6130000000	262
21.6430000000	245
21.6730000000	235
21.7030000000	242
21.7330000000	233
21.7630000000	243
21.7930000000	218
21.8230000000	232
21.8530000000	258
21.8830000000	257
21.9130000000	232
21.9430000000	240
21.9730000000	225
22.0030000000	240
22.0330000000	244
22.0630000000	246
22.0930000000	248
22.1230000000	241
22.1530000000	244
22.1830000000	263
22.2130000000	273
22.2430000000	254
22.2730000000	250
22.3030000000	251
22.3330000000	266
22.3630000000	258
22.3930000000	236
22.4230000000	232
22.4530000000	236
22.4830000000	246
22.5130000000	250
22.5430000000	260
22.5730000000	261
22.6030000000	254
22.6330000000	262
22.6630000000	279
22.6930000000	257
22.7230000000	206
22.7530000000	252
22.7830000000	270
22.8130000000	262
22.8430000000	241
22.8730000000	236
22.9030000000	261
22.9330000000	244
22.9630000000	265
22.9930000000	244
23.0230000000	234
23.0530000000	261
23.0830000000	267
23.1130000000	229
23.1430000000	256
23.1730000000	251
23.2030000000	278
23.2330000000	266
23.2630000000	273
23.2930000000	250
23.3230000000	266
23.3530000000	277
23.3830000000	250
23.4130000000	223
23.4430000000	245
23.4730000000	274
23.5030000000	266
23.5330000000	263
23.5630000000	260
23.5930000000	223
23.6230000000	253
23.6530000000	244
23.6830000000	252
23.7130000000	246
23.7430000000	263
23.7730000000	235
23.8030000000	257
23.8330000000	269
23.8630000000	246
23.8930000000	251
23.9230000000	258
23.9530000000	251
23.9830000000	265
24.0130000000	252
24.0430000000	281
24.0730000000	254
24.1030000000	265
24.1330000000	226
24.1630000000	245
24.1930000000	242
24.2230000000	257
24.2530000000	260
24.2830000000	258
24.3130000000	242
24.3430000000	251
24.3730000000	243
24.4030000000	272
24.4330000000	255
24.4630000000	223
24.4930000000	235
24.5230000000	236
24.5530000000	250
24.5830000000	268
24.6130000000	277
24.6430000000	235
24.6730000000	250
24.7030000000	233
24.7330000000	248
24.7630000000	242
24.7930000000	239
24.8230000000	206
24.8530000000	234
24.8830000000	249
24.9130000000	226
24.9430000000	238
24.9730000000	234
25.0030000000	236
25.0330000000	221
25.0630000000	223
25.0930000000	209
25.1230000000	232
25.1530000000	252
25.1830000000	273
25.2130000000	253
25.2430000000	211
25.2730000000	228
25.3030000000	238
25.3330000000	247
25.3630000000	232
25.3930000000	250
25.4230000000	244
25.4530000000	231
25.4830000000	245
25.5130000000	208
25.5430000000	220
25.5730000000	235
25.6030000000	230
25.6330000000	243
25.6630000000	241
25.6930000000	231
25.7230000000	238
25.7530000000	229
25.7830000000	237
25.8130000000	226
25.8430000000	231
25.8730000000	221
25.9030000000	234
25.9330000000	232
25.9630000000	225
25.9930000000	244
26.0230000000	238
26.0530000000	232
26.0830000000	226
26.1130000000	231
26.1430000000	223
26.1730000000	206
26.2030000000	248
26.2330000000	256
26.2630000000	234
26.2930000000	219
26.3230000000	207
26.3530000000	219
26.3830000000	235
26.4130000000	240
26.4430000000	218
26.4730000000	232
26.5030000000	211
26.5330000000	218
26.5630000000	223
26.5930000000	228
26.6230000000	240
26.6530000000	240
26.6830000000	219
26.7130000000	228
26.7430000000	204
26.7730000000	205
26.8030000000	205
26.8330000000	218
26.8630000000	223
26.8930000000	227
26.9230000000	215
26.9530000000	214
26.9830000000	222
27.0130000000	230
27.0430000000	251
27.0730000000	243
27.1030000000	215
27.1330000000	201
27.1630000000	230
27.1930000000	245
27.2230000000	214
27.2530000000	233
27.2830000000	209
27.3130000000	200
27.3430000000	209
27.3730000000	210
27.4030000000	232
27.4330000000	208
27.4630000000	211
27.4930000000	216
27.5230000000	220
27.5530000000	206
27.5830000000	189
27.6130000000	212
27.6430000000	218
27.6730000000	200
27.7030000000	205
27.7330000000	233
27.7630000000	185
27.7930000000	211
27.8230000000	219
27.8530000000	214
27.8830000000	213
27.9130000000	223
27.9430000000	233
27.9730000000	201
28.0030000000	219
28.0330000000	217
28.0630000000	209
28.0930000000	204
28.1230000000	239
28.1530000000	199
28.1830000000	208
28.2130000000	226
28.2430000000	212
28.2730000000	226
28.3030000000	221
28.3330000000	229
28.3630000000	230
28.3930000000	226
28.4230000000	211
28.4530000000	210
28.4830000000	224
28.5130000000	243
28.5430000000	245
28.5730000000	225
28.6030000000	228
28.6330000000	211
28.6630000000	219
28.6930000000	189
28.7230000000	229
28.7530000000	228
28.7830000000	245
28.8130000000	225
28.8430000000	241
28.8730000000	201
28.9030000000	205
28.9330000000	206
28.9630000000	248
28.9930000000	194
29.0230000000	189
29.0530000000	213
29.0830000000	218
29.1130000000	229
29.1430000000	232
29.1730000000	196
29.2030000000	211
29.2330000000	195
29.2630000000	192
29.2930000000	189
29.3230000000	205
29.3530000000	184
29.3830000000	197
29.4130000000	200
29.4430000000	192
29.4730000000	198
29.5030000000	189
29.5330000000	202
29.5630000000	207
29.5930000000	205
29.6230000000	211
29.6530000000	206
29.6830000000	207
29.7130000000	190
29.7430000000	213
29.7730000000	215
29.8030000000	208
29.8330000000	197
29.8630000000	211
29.8930000000	206
29.9230000000	194
29.9530000000	202
29.9830000000	209
30.0130000000	213
30.0430000000	223
30.0730000000	221
30.1030000000	195
30.1330000000	187
30.1630000000	209
30.1930000000	218
30.2230000000	201
30.2530000000	201
30.2830000000	173
30.3130000000	218
30.3430000000	200
30.3730000000	209
30.4030000000	215
30.4330000000	196
30.4630000000	204
30.4930000000	216
30.5230000000	209
30.5530000000	211
30.5830000000	201
30.6130000000	187
30.6430000000	195
30.6730000000	210
30.7030000000	217
30.7330000000	212
30.7630000000	203
30.7930000000	213
30.8230000000	223
30.8530000000	189
30.8830000000	199
30.9130000000	183
30.9430000000	203
30.9730000000	202
31.0030000000	192
31.0330000000	201
31.0630000000	194
31.0930000000	216
31.1230000000	217
31.1530000000	201
31.1830000000	196
31.2130000000	197
31.2430000000	206
31.2730000000	197
31.3030000000	199
31.3330000000	223
31.3630000000	226
31.3930000000	231
31.4230000000	191
31.4530000000	199
31.4830000000	240
31.5130000000	200
31.5430000000	181
31.5730000000	208
31.6030000000	207
31.6330000000	210
31.6630000000	200
31.6930000000	183
31.7230000000	179
31.7530000000	162
31.7830000000	195
31.8130000000	198
31.8430000000	166
31.8730000000	207
31.9030000000	188
31.9330000000	179
31.9630000000	176
31.9930000000	193
32.0230000000	213
32.0530000000	186
32.0830000000	190
32.1130000000	207
32.1430000000	176
32.1730000000	215
32.2030000000	212
32.2330000000	196
32.2630000000	173
32.2930000000	167
32.3230000000	174
32.3530000000	191
32.3830000000	170
32.4130000000	200
32.4430000000	183
32.4730000000	171
32.5030000000	152
32.5330000000	174
32.5630000000	187
32.5930000000	179
32.6230000000	200
32.6530000000	195
32.6830000000	183
32.7130000000	170
32.7430000000	157
32.7730000000	199
32.8030000000	181
32.8330000000	188
32.8630000000	180
32.8930000000	171
32.9230000000	176
32.9530000000	177
32.9830000000	176
33.0130000000	171
33.0430000000	183
33.0730000000	141
33.1030000000	164
33.1330000000	171
33.1630000000	178
33.1930000000	168
33.2230000000	157
33.2530000000	163
33.2830000000	186
33.3130000000	169
33.3430000000	161
33.3730000000	161
33.4030000000	168
33.4330000000	177
33.4630000000	181
33.4930000000	153
33.5230000000	147
33.5530000000	165
33.5830000000	166
33.6130000000	172
33.6430000000	163
33.6730000000	151
33.7030000000	189
33.7330000000	181
33.7630000000	167
33.7930000000	165
33.8230000000	153
33.8530000000	171
33.8830000000	160
33.9130000000	158
33.9430000000	145
33.9730000000	184
34.0030000000	163
34.0330000000	146
34.0630000000	148
34.0930000000	161
34.1230000000	157
34.1530000000	159
34.1830000000	164
34.2130000000	151
34.2430000000	167
34.2730000000	164
34.3030000000	170
34.3330000000	146
34.3630000000	145
34.3930000000	176
34.4230000000	169
34.4530000000	165
34.4830000000	154
34.5130000000	161
34.5430000000	179
34.5730000000	153
34.6030000000	148
34.6330000000	173
34.6630000000	154
34.6930000000	145
34.7230000000	141
34.7530000000	158
34.7830000000	152
34.8130000000	141
34.8430000000	152
34.8730000000	147
34.9030000000	160
34.9330000000	149
34.9630000000	141
34.9930000000	164
35.0230000000	159
35.0530000000	151
35.0830000000	139
35.1130000000	152
35.1430000000	159
35.1730000000	152
35.2030000000	149
35.2330000000	153
35.2630000000	150
35.2930000000	141
35.3230000000	135
35.3530000000	142
35.3830000000	161
35.4130000000	160
35.4430000000	150
35.4730000000	149
35.5030000000	142
35.5330000000	140
35.5630000000	141
35.5930000000	150
35.6230000000	141
35.6530000000	163
35.6830000000	155
35.7130000000	142
35.7430000000	156
35.7730000000	146
35.8030000000	133
35.8330000000	135
35.8630000000	141
35.8930000000	148
35.9230000000	138
35.9530000000	129
35.9830000000	143
36.0130000000	151
36.0430000000	132
36.0730000000	133
36.1030000000	120
36.1330000000	143
36.1630000000	110
36.1930000000	129
36.2230000000	150
36.2530000000	143
36.2830000000	144
36.3130000000	125
36.3430000000	134
36.3730000000	138
36.4030000000	110
36.4330000000	125
36.4630000000	130
36.4930000000	129
36.5230000000	125
36.5530000000	119
36.5830000000	145
36.6130000000	150
36.6430000000	139
36.6730000000	135
36.7030000000	146
36.7330000000	135
36.7630000000	126
36.7930000000	138
36.8230000000	131
36.8530000000	134
36.8830000000	141
36.9130000000	133
36.9430000000	125
36.9730000000	141
37.0030000000	125
37.0330000000	120
37.0630000000	108
37.0930000000	123
37.1230000000	124
37.1530000000	133
37.1830000000	117
37.2130000000	124
37.2430000000	106
37.2730000000	114
37.3030000000	131
37.3330000000	133
37.3630000000	151
37.3930000000	134
37.4230000000	128
37.4530000000	121
37.4830000000	126
37.5130000000	116
37.5430000000	119
37.5730000000	114
37.6030000000	98
37.6330000000	110
37.6630000000	118
37.6930000000	110
37.7230000000	114
37.7530000000	130
37.7830000000	112
37.8130000000	115
37.8430000000	113
37.8730000000	137
37.9030000000	138
37.9330000000	130
37.9630000000	105
37.9930000000	109
38.0230000000	121
38.0530000000	117
38.0830000000	108
38.1130000000	107
38.1430000000	123
38.1730000000	110
38.2030000000	110
38.2330000000	121
38.2630000000	125
38.2930000000	109
38.3230000000	101
38.3530000000	115
38.3830000000	113
38.4130000000	115
38.4430000000	113
38.4730000000	126
38.5030000000	103
38.5330000000	101
38.5630000000	110
38.5930000000	101
38.6230000000	114
38.6530000000	119
38.6830000000	123
38.7130000000	124
38.7430000000	115
38.7730000000	116
38.8030000000	116
38.8330000000	107
38.8630000000	105
38.8930000000	113
38.9230000000	123
38.9530000000	125
38.9830000000	117
39.0130000000	118
39.0430000000	119
39.0730000000	97
39.1030000000	98
39.1330000000	131
39.1630000000	98
39.1930000000	105
39.2230000000	117
39.2530000000	111
39.2830000000	118
39.3130000000	104
39.3430000000	97
39.3730000000	123
39.4030000000	107
39.4330000000	111
39.4630000000	118
39.4930000000	98
39.5230000000	104
39.5530000000	91
39.5830000000	95
39.6130000000	123
39.6430000000	105
39.6730000000	104
39.7030000000	116
39.7330000000	100
39.7630000000	96
39.7930000000	105
39.8230000000	118
39.8530000000	101
39.8830000000	99
39.9130000000	100
39.9430000000	96
39.9730000000	103
40.0030000000	96
40.0330000000	100
40.0630000000	109
40.0930000000	104
40.1230000000	80
40.1530000000	89
40.1830000000	113
40.2130000000	97
40.2430000000	107
40.2730000000	127
40.3030000000	99
40.3330000000	120
40.3630000000	127
40.3930000000	107
40.4230000000	118
40.4530000000	107
40.4830000000	89
40.5130000000	113
40.5430000000	118
40.5730000000	115
40.6030000000	114
40.6330000000	99
40.6630000000	125
40.6930000000	109
40.7230000000	102
40.7530000000	89
40.7830000000	86
40.8130000000	120
40.8430000000	123
40.8730000000	92
40.9030000000	115
40.9330000000	126
40.9630000000	110
40.9930000000	104
41.0230000000	105
41.0530000000	103
41.0830000000	108
41.1130000000	86
41.1430000000	119
41.1730000000	98
41.2030000000	110
41.2330000000	119
41.2630000000	102
41.2930000000	96
41.3230000000	121
41.3530000000	101
41.3830000000	101
41.4130000000	100
41.4430000000	110
41.4730000000	96
41.5030000000	103
41.5330000000	96
41.5630000000	93
41.5930000000	94
41.6230000000	100
41.6530000000	87
41.6830000000	104
41.7130000000	115
41.7430000000	103
41.7730000000	101
41.8030000000	116
41.8330000000	95
41.8630000000	101
41.8930000000	101
41.9230000000	90
41.9530000000	87
41.9830000000	81
42.0130000000	96
42.0430000000	113
42.0730000000	112
42.1030000000	82
42.1330000000	84
42.1630000000	87
42.1930000000	107
42.2230000000	112
42.2530000000	95
42.2830000000	100
42.3130000000	99
42.3430000000	92
42.3730000000	89
42.4030000000	86
42.4330000000	79
42.4630000000	94
42.4930000000	97
42.5230000000	88
42.5530000000	83
42.5830000000	82
42.6130000000	97
42.6430000000	96
42.6730000000	95
42.7030000000	98
42.7330000000	84
42.7630000000	84
42.7930000000	98
42.8230000000	89
42.8530000000	92
42.8830000000	105
42.9130000000	94
42.9430000000	97
42.9730000000	104
43.0030000000	94
43.0330000000	93
43.0630000000	87
43.0930000000	87
43.1230000000	97
43.1530000000	83
43.1830000000	98
43.2130000000	94
43.2430000000	70
43.2730000000	92
43.3030000000	91
43.3330000000	91
43.3630000000	87
43.3930000000	86
43.4230000000	80
43.4530000000	110
43.4830000000	82
43.5130000000	73
43.5430000000	94
43.5730000000	96
43.6030000000	114
43.6330000000	86
43.6630000000	90
43.6930000000	94
43.7230000000	93
43.7530000000	94
43.7830000000	88
43.8130000000	76
43.8430000000	68
43.8730000000	85
43.9030000000	104
43.9330000000	85
43.9630000000	79
43.9930000000	91
44.0230000000	80
44.0530000000	85
44.0830000000	81
44.1130000000	75
44.1430000000	86
44.1730000000	79
44.2030000000	79
44.2330000000	83
44.2630000000	77
44.2930000000	83
44.3230000000	79
44.3530000000	92
44.3830000000	76
44.4130000000	83
44.4430000000	80
44.4730000000	87
44.5030000000	81
44.5330000000	95
44.5630000000	94
44.5930000000	82
44.6230000000	87
44.6530000000	78
44.6830000000	77
44.7130000000	93
44.7430000000	87
44.7730000000	81
44.8030000000	87
44.8330000000	88
44.8630000000	96
44.8930000000	85
44.9230000000	90
44.9530000000	84
44.9830000000	95
45.0130000000	85
45.0430000000	75
45.0730000000	69
45.1030000000	81
45.1330000000	90
45.1630000000	86
45.1930000000	75
45.2230000000	86
45.2530000000	91
45.2830000000	81
45.3130000000	98
45.3430000000	90
45.3730000000	92
45.4030000000	86
45.4330000000	74
45.4630000000	82
45.4930000000	75
45.5230000000	83
45.5530000000	75
45.5830000000	79
45.6130000000	80
45.6430000000	82
45.6730000000	78
45.7030000000	80
45.7330000000	90
45.7630000000	79
45.7930000000	69
45.8230000000	76
45.8530000000	73
45.8830000000	84
45.9130000000	71
45.9430000000	72
45.9730000000	81
46.0030000000	74
46.0330000000	86
46.0630000000	81
46.0930000000	78
46.1230000000	89
46.1530000000	61
46.1830000000	70
46.2130000000	72
46.2430000000	74
46.2730000000	96
46.3030000000	59
46.3330000000	89
46.3630000000	74
46.3930000000	70
46.4230000000	78
46.4530000000	67
46.4830000000	69
46.5130000000	70
46.5430000000	73
46.5730000000	84
46.6030000000	71
46.6330000000	77
46.6630000000	67
46.6930000000	86
46.7230000000	82
46.7530000000	74
46.7830000000	83
46.8130000000	67
46.8430000000	75
46.8730000000	91
46.9030000000	70
46.9330000000	76
46.9630000000	90
46.9930000000	81
47.0230000000	82
47.0530000000	72
47.0830000000	81
47.1130000000	59
47.1430000000	77
47.1730000000	79
47.2030000000	81
47.2330000000	75
47.2630000000	80
47.2930000000	74
47.3230000000	81
47.3530000000	79
47.3830000000	72
47.4130000000	70
47.4430000000	78
47.4730000000	76
47.5030000000	66
47.5330000000	68
47.5630000000	78
47.5930000000	68
47.6230000000	68
47.6530000000	73
47.6830000000	91
47.7130000000	81
47.7430000000	82
47.7730000000	76
47.8030000000	73
47.8330000000	65
47.8630000000	63
47.8930000000	70
47.9230000000	78
47.9530000000	54
47.9830000000	68
48.0130000000	64
48.0430000000	69
48.0730000000	75
48.1030000000	66
48.1330000000	72
48.1630000000	74
48.1930000000	78
48.2230000000	72
48.2530000000	64
48.2830000000	68
48.3130000000	65
48.3430000000	69
48.3730000000	73
48.4030000000	72
48.4330000000	75
48.4630000000	63
48.4930000000	55
48.5230000000	63
48.5530000000	81
48.5830000000	74
48.6130000000	52
48.6430000000	61
48.6730000000	72
48.7030000000	74
48.7330000000	79
48.7630000000	78
48.7930000000	67
48.8230000000	70
48.8530000000	79
48.8830000000	74
48.9130000000	77
48.9430000000	72
48.9730000000	59
49.0030000000	61
49.0330000000	67
49.0630000000	67
49.0930000000	56
49.1230000000	65
49.1530000000	65
49.1830000000	85
49.2130000000	74
49.2430000000	72
49.2730000000	64
49.3030000000	71
49.3330000000	74
49.3630000000	79
49.3930000000	63
49.4230000000	58
49.4530000000	59
49.4830000000	65
49.5130000000	74
49.5430000000	75
49.5730000000	72
49.6030000000	70
49.6330000000	70
49.6630000000	87
49.6930000000	54
49.7230000000	68
49.7530000000	62
49.7830000000	64
49.8130000000	62
49.8430000000	67
49.8730000000	68
49.9030000000	59
49.9330000000	79
49.9630000000	57
49.9930000000	74
50.0230000000	69
50.0530000000	69
50.0830000000	71
50.1130000000	60
50.1430000000	71
50.1730000000	62
50.2030000000	60
50.2330000000	80
50.2630000000	57
50.2930000000	70
50.3230000000	56
50.3530000000	64
50.3830000000	74
50.4130000000	74
50.4430000000	58
50.4730000000	70
50.5030000000	64
50.5330000000	71
50.5630000000	54
50.5930000000	69
50.6230000000	71
50.6530000000	54
50.6830000000	59
50.7130000000	60
50.7430000000	54
50.7730000000	56
50.8030000000	64
50.8330000000	59
50.8630000000	55
50.8930000000	62
50.9230000000	66
50.9530000000	63
50.9830000000	65
51.0130000000	49
51.0430000000	56
51.0730000000	62
51.1030000000	59
51.1330000000	64
51.1630000000	57
51.1930000000	56
51.2230000000	54
51.2530000000	60
51.2830000000	59
51.3130000000	56
51.3430000000	62
51.3730000000	62
51.4030000000	54
51.4330000000	63
51.4630000000	49
51.4930000000	56
51.5230000000	53
51.5530000000	66
51.5830000000	61
51.6130000000	53
51.6430000000	60
51.6730000000	60
51.7030000000	63
51.7330000000	67
51.7630000000	55
51.7930000000	67
51.8230000000	58
51.8530000000	48
51.8830000000	52
51.9130000000	61
51.9430000000	57
51.9730000000	51
52.0030000000	50
52.0330000000	50
52.0630000000	62
52.0930000000	56
52.1230000000	57
52.1530000000	59
52.1830000000	53
52.2130000000	57
52.2430000000	52
52.2730000000	58
52.3030000000	73
52.3330000000	70
52.3630000000	52
52.3930000000	54
52.4230000000	54
52.4530000000	61
52.4830000000	61
52.5130000000	57
52.5430000000	52
52.5730000000	54
52.6030000000	52
52.6330000000	48
52.6630000000	65
52.6930000000	36
52.7230000000	62
52.7530000000	61
52.7830000000	54
52.8130000000	55
52.8430000000	47
52.8730000000	68
52.9030000000	54
52.9330000000	52
52.9630000000	49
52.9930000000	52
53.0230000000	67
53.0530000000	59
53.0830000000	43
53.1130000000	60
53.1430000000	69
53.1730000000	54
53.2030000000	53
53.2330000000	58
53.2630000000	57
53.2930000000	44
53.3230000000	59
53.3530000000	64
53.3830000000	55
53.4130000000	52
53.4430000000	59
53.4730000000	50
53.5030000000	46
53.5330000000	60
53.5630000000	55
53.5930000000	58
53.6230000000	57
53.6530000000	62
53.6830000000	62
53.7130000000	59
53.7430000000	49
53.7730000000	57
53.8030000000	59
53.8330000000	49
53.8630000000	66
53.8930000000	64
53.9230000000	44
53.9530000000	55
53.9830000000	57
54.0130000000	49
54.0430000000	55
54.0730000000	57
54.1030000000	65
54.1330000000	66
54.1630000000	57
54.1930000000	49
54.2230000000	56
54.2530000000	39
54.2830000000	54
54.3130000000	45
54.3430000000	58
54.3730000000	54
54.4030000000	50
54.4330000000	54
54.4630000000	58
54.4930000000	53
54.5230000000	52
54.5530000000	54
54.5830000000	42
54.6130000000	69
54.6430000000	57
54.6730000000	50
54.7030000000	37
54.7330000000	44
54.7630000000	49
54.7930000000	41
54.8230000000	54
54.8530000000	53
54.8830000000	43
54.9130000000	51
54.9430000000	55
54.9730000000	51
55.0030000000	58
55.0330000000	44
55.0630000000	58
55.0930000000	53
55.1230000000	61
55.1530000000	38
55.1830000000	64
55.2130000000	37
55.2430000000	53
55.2730000000	47
55.3030000000	43
55.3330000000	40
55.3630000000	66
55.3930000000	44
55.4230000000	50
55.4530000000	53
55.4830000000	47
55.5130000000	56
55.5430000000	55
55.5730000000	50
55.6030000000	48
55.6330000000	59
55.6630000000	57
55.6930000000	49
55.7230000000	67
55.7530000000	44
55.7830000000	52
55.8130000000	51
55.8430000000	52
55.8730000000	58
55.9030000000	45
55.9330000000	55
55.9630000000	52
55.9930000000	44
56.0230000000	52
56.0530000000	49
56.0830000000	46
56.1130000000	52
56.1430000000	51
56.1730000000	48
56.2030000000	53
56.2330000000	50
56.2630000000	49
56.2930000000	43
56.3230000000	41
56.3530000000	42
56.3830000000	39
56.4130000000	41
56.4430000000	57
56.4730000000	40
56.5030000000	44
56.5330000000	45
56.5630000000	47
56.5930000000	63
56.6230000000	56
56.6530000000	33
56.6830000000	49
56.7130000000	44
56.7430000000	39
56.7730000000	53
56.8030000000	46
56.8330000000	51
56.8630000000	44
56.8930000000	46
56.9230000000	42
56.9530000000	49
56.9830000000	55
57.0130000000	46
57.0430000000	45
57.0730000000	48
57.1030000000	40
57.1330000000	42
57.1630000000	42
57.1930000000	48
57.2230000000	42
57.2530000000	49
57.2830000000	47
57.3130000000	54
57.3430000000	42
57.3730000000	51
57.4030000000	48
57.4330000000	37
57.4630000000	42
57.4930000000	43
57.5230000000	38
57.5530000000	45
57.5830000000	35
57.6130000000	48
57.6430000000	51
57.6730000000	41
57.7030000000	44
57.7330000000	53
57.7630000000	42
57.7930000000	43
57.8230000000	52
57.8530000000	52
57.8830000000	50
57.9130000000	65
57.9430000000	56
57.9730000000	29
58.0030000000	50
58.0330000000	54
58.0630000000	39
58.0930000000	54
58.1230000000	35
58.1530000000	39
58.1830000000	46
58.2130000000	44
58.2430000000	41
58.2730000000	51
58.3030000000	52
58.3330000000	43
58.3630000000	44
58.3930000000	40
58.4230000000	54
58.4530000000	43
58.4830000000	48
58.5130000000	49
58.5430000000	49
58.5730000000	46
58.6030000000	37
58.6330000000	45
58.6630000000	45
58.6930000000	43
58.7230000000	45
58.7530000000	50
58.7830000000	48
58.8130000000	50
58.8430000000	49
58.8730000000	45
58.9030000000	46
58.9330000000	51
58.9630000000	64
58.9930000000	56
59.0230000000	44
59.0530000000	35
59.0830000000	52
59.1130000000	45
59.1430000000	44
59.1730000000	40
59.2030000000	34
59.2330000000	33
59.2630000000	50
59.2930000000	46
59.3230000000	39
59.3530000000	46
59.3830000000	47
59.4130000000	52
59.4430000000	51
59.4730000000	47
59.5030000000	48
59.5330000000	51
59.5630000000	51
59.5930000000	42
59.6230000000	40
59.6530000000	41
59.6830000000	47
59.7130000000	41
59.7430000000	44
59.7730000000	49
59.8030000000	47
59.8330000000	55
59.8630000000	38
59.8930000000	50
59.9230000000	38
59.9530000000	52
59.9830000000	40
60.0130000000	47
60.0430000000	51
60.0730000000	41
60.1030000000	45
60.1330000000	45
60.1630000000	45
60.1930000000	46
60.2230000000	46
60.2530000000	43
60.2830000000	46
60.3130000000	50
60.3430000000	48
60.3730000000	38
60.4030000000	51
60.4330000000	49
60.4630000000	38
60.4930000000	41
60.5230000000	49
60.5530000000	53
60.5830000000	50
60.6130000000	44
60.6430000000	46
60.6730000000	53
60.7030000000	56
60.7330000000	49
60.7630000000	49
60.7930000000	49
60.8230000000	35
60.8530000000	46
60.8830000000	49
60.9130000000	31
60.9430000000	37
60.9730000000	38
61.0030000000	46
61.0330000000	50
61.0630000000	38
61.0930000000	49
61.1230000000	41
61.1530000000	38
61.1830000000	36
61.2130000000	29
61.2430000000	38
61.2730000000	46
61.3030000000	44
61.3330000000	46
61.3630000000	36
61.3930000000	41
61.4230000000	49
61.4530000000	39
61.4830000000	42
61.5130000000	54
61.5430000000	43
61.5730000000	44
61.6030000000	43
61.6330000000	40
61.6630000000	40
61.6930000000	52
61.7230000000	43
61.7530000000	36
61.7830000000	46
61.8130000000	36
61.8430000000	40
61.8730000000	38
61.9030000000	42
61.9330000000	43
61.9630000000	44
61.9930000000	38
62.0230000000	39
62.0530000000	50
62.0830000000	41
62.1130000000	46
62.1430000000	48
62.1730000000	31
62.2030000000	42
62.2330000000	36
62.2630000000	35
62.2930000000	44
62.3230000000	42
62.3530000000	50
62.3830000000	39
62.4130000000	41
62.4430000000	36
62.4730000000	39
62.5030000000	55
62.5330000000	48
62.5630000000	46
62.5930000000	50
62.6230000000	38
62.6530000000	43
62.6830000000	46
62.7130000000	46
62.7430000000	49
62.7730000000	36
62.8030000000	39
62.8330000000	42
62.8630000000	36
62.8930000000	44
62.9230000000	42
62.9530000000	46
62.9830000000	50
63.0130000000	45
63.0430000000	45
63.0730000000	49
63.1030000000	44
63.1330000000	39
63.1630000000	49
63.1930000000	42
63.2230000000	39
63.2530000000	45
63.2830000000	44
63.3130000000	43
63.3430000000	44
63.3730000000	38
63.4030000000	35
63.4330000000	50
63.4630000000	46
63.4930000000	48
63.5230000000	29
63.5530000000	42
63.5830000000	42
63.6130000000	43
63.6430000000	48
63.6730000000	49
63.7030000000	47
63.7330000000	43
63.7630000000	41
63.7930000000	47
63.8230000000	36
63.8530000000	40
63.8830000000	39
63.9130000000	43
63.9430000000	42
63.9730000000	38
64.0030000000	41
64.0330000000	34
64.0630000000	44
64.0930000000	37
64.1230000000	42
64.1530000000	51
64.1830000000	40
64.2130000000	47
64.2430000000	46
64.2730000000	33
64.3030000000	44
64.3330000000	45
64.3630000000	38
64.3930000000	42
64.4230000000	46
64.4530000000	34
64.4830000000	39
64.5130000000	49
64.5430000000	38
64.5730000000	53
64.6030000000	44
64.6330000000	41
64.6630000000	46
64.6930000000	41
64.7230000000	34
64.7530000000	36
64.7830000000	41
64.8130000000	49
64.8430000000	34
64.8730000000	36
64.9030000000	36
64.9330000000	42
64.9630000000	41
64.9930000000	33
65.0230000000	32
65.0530000000	44
65.0830000000	28
65.1130000000	40
65.1430000000	37
65.1730000000	41
65.2030000000	43
65.2330000000	44
65.2630000000	31
65.2930000000	46
65.3230000000	49
65.3530000000	31
65.3830000000	46
65.4130000000	48
65.4430000000	47
65.4730000000	38
65.5030000000	41
65.5330000000	36
65.5630000000	51
65.5930000000	38
65.6230000000	36
65.6530000000	40
65.6830000000	38
65.7130000000	43
65.7430000000	36
65.7730000000	40
65.8030000000	46
65.8330000000	37
65.8630000000	39
65.8930000000	46
65.9230000000	31
65.9530000000	43
65.9830000000	45
66.0130000000	44
66.0430000000	32
66.0730000000	37
66.1030000000	47
66.1330000000	36
66.1630000000	27
66.1930000000	33
66.2230000000	35
66.2530000000	52
66.2830000000	37
66.3130000000	37
66.3430000000	43
66.3730000000	38
66.4030000000	49
66.4330000000	36
66.4630000000	41
66.4930000000	40
66.5230000000	43
66.5530000000	44
66.5830000000	37
66.6130000000	35
66.6430000000	42
66.6730000000	46
66.7030000000	45
66.7330000000	33
66.7630000000	52
66.7930000000	44
66.8230000000	34
66.8530000000	45
66.8830000000	45
66.9130000000	36
66.9430000000	49
66.9730000000	39
67.0030000000	36
67.0330000000	36
67.0630000000	47
67.0930000000	45
67.1230000000	42
67.1530000000	38
67.1830000000	37
67.2130000000	41
67.2430000000	43
67.2730000000	41
67.3030000000	42
67.3330000000	38
67.3630000000	41
67.3930000000	31
67.4230000000	51
67.4530000000	38
67.4830000000	44
67.5130000000	52
67.5430000000	39
67.5730000000	47
67.6030000000	37
67.6330000000	45
67.6630000000	41
67.6930000000	30
67.7230000000	38
67.7530000000	53
67.7830000000	42
67.8130000000	36
67.8430000000	41
67.8730000000	39
67.9030000000	38
67.9330000000	41
67.9630000000	42
67.9930000000	40
68.0230000000	31
68.0530000000	37
68.0830000000	42
68.1130000000	36
68.1430000000	37
68.1730000000	37
68.2030000000	44
68.2330000000	35
68.2630000000	36
68.2930000000	39
68.3230000000	34
68.3530000000	36
68.3830000000	38
68.4130000000	42
68.4430000000	39
68.4730000000	42
68.5030000000	33
68.5330000000	49
68.5630000000	30
68.5930000000	44
68.6230000000	34
68.6530000000	41
68.6830000000	49
68.7130000000	42
68.7430000000	37
68.7730000000	37
68.8030000000	36
68.8330000000	40
68.8630000000	52
68.8930000000	53
68.9230000000	41
68.9530000000	33
68.9830000000	31
69.0130000000	41
69.0430000000	50
69.0730000000	36
69.1030000000	49
69.1330000000	41
69.1630000000	33
69.1930000000	19
69.2230000000	42
69.2530000000	38
69.2830000000	41
69.3130000000	40
69.3430000000	40
69.3730000000	36
69.4030000000	29
69.4330000000	39
69.4630000000	40
69.4930000000	31
69.5230000000	37
69.5530000000	37
69.5830000000	39
69.6130000000	39
69.6430000000	34
69.6730000000	42
69.7030000000	37
69.7330000000	41
69.7630000000	39
69.7930000000	48
69.8230000000	48
69.8530000000	36
69.8830000000	36
69.9130000000	44
69.9430000000	44
69.9730000000	50
70.0030000000	39
70.0330000000	45
70.0630000000	48
70.0930000000	47
70.1230000000	28
70.1530000000	33
70.1830000000	39
70.2130000000	44
70.2430000000	29
70.2730000000	35
70.3030000000	36
70.3330000000	43
70.3630000000	44
70.3930000000	35
70.4230000000	38
70.4530000000	41
70.4830000000	43
70.5130000000	33
70.5430000000	37
70.5730000000	39
70.6030000000	40
70.6330000000	43
70.6630000000	52
70.6930000000	45
70.7230000000	33
70.7530000000	36
70.7830000000	43
70.8130000000	36
70.8430000000	29
70.8730000000	39
70.9030000000	46
70.9330000000	43
70.9630000000	35
70.9930000000	42
71.0230000000	46
71.0530000000	36
71.0830000000	36
71.1130000000	41
71.1430000000	45
71.1730000000	39
71.2030000000	44
71.2330000000	41
71.2630000000	42
71.2930000000	37
71.3230000000	44
71.3530000000	38
71.3830000000	40
71.4130000000	41
71.4430000000	30
71.4730000000	40
71.5030000000	40
71.5330000000	30
71.5630000000	37
71.5930000000	33
71.6230000000	34
71.6530000000	34
71.6830000000	39
71.7130000000	36
71.7430000000	35
71.7730000000	35
71.8030000000	35
71.8330000000	35
71.8630000000	21
71.8930000000	38
71.9230000000	41
71.9530000000	28
71.9830000000	43
72.0130000000	30
72.0430000000	37
72.0730000000	56
72.1030000000	27
72.1330000000	32
72.1630000000	43
72.1930000000	40
72.2230000000	43
72.2530000000	54
72.2830000000	26
72.3130000000	40
72.3430000000	27
72.3730000000	45
72.4030000000	30
72.4330000000	36
72.4630000000	34
72.4930000000	32
72.5230000000	41
72.5530000000	48
72.5830000000	45
72.6130000000	51
72.6430000000	46
72.6730000000	44
72.7030000000	38
72.7330000000	35
72.7630000000	47
72.7930000000	41
72.8230000000	39
72.8530000000	44
72.8830000000	51
72.9130000000	27
72.9430000000	36
72.9730000000	37
73.0030000000	47
73.0330000000	35
73.0630000000	38
73.0930000000	25
73.1230000000	44
73.1530000000	37
73.1830000000	41
73.2130000000	52
73.2430000000	41
73.2730000000	39
73.3030000000	43
73.3330000000	44
73.3630000000	42
73.3930000000	37
73.4230000000	35
73.4530000000	44
73.4830000000	47
73.5130000000	39
73.5430000000	48
73.5730000000	44
73.6030000000	39
73.6330000000	36
73.6630000000	34
73.6930000000	39
73.7230000000	36
73.7530000000	29
73.7830000000	32
73.8130000000	40
73.8430000000	41
73.8730000000	44
73.9030000000	34
73.9330000000	40
73.9630000000	36
73.9930000000	38
74.0230000000	46
74.0530000000	37
74.0830000000	41
74.1130000000	32
74.1430000000	27
74.1730000000	31
74.2030000000	35
74.2330000000	32
74.2630000000	45
74.2930000000	36
74.3230000000	41
74.3530000000	30
74.3830000000	43
74.4130000000	37
74.4430000000	44
74.4730000000	31
74.5030000000	32
74.5330000000	28
74.5630000000	34
74.5930000000	34
74.6230000000	36
74.6530000000	35
74.6830000000	30
74.7130000000	34
74.7430000000	37
74.7730000000	29
74.8030000000	36
74.8330000000	39
74.8630000000	38
74.8930000000	39
74.9230000000	35
74.9530000000	38
74.9830000000	39
75.0130000000	28
75.0430000000	37
75.0730000000	32
75.1030000000	43
75.1330000000	35
75.1630000000	37
75.1930000000	33
75.2230000000	37
75.2530000000	33
75.2830000000	40
75.3130000000	33
75.3430000000	34
75.3730000000	34
75.4030000000	32
75.4330000000	39
75.4630000000	48
75.4930000000	43
75.5230000000	25
75.5530000000	38
75.5830000000	45
75.6130000000	49
75.6430000000	28
75.6730000000	31
75.7030000000	28
75.7330000000	32
75.7630000000	46
75.7930000000	47
75.8230000000	37
75.8530000000	40
75.8830000000	39
75.9130000000	40
75.9430000000	37
75.9730000000	34
76.0030000000	37
76.0330000000	34
76.0630000000	31
76.0930000000	42
76.1230000000	44
76.1530000000	24
76.1830000000	36
76.2130000000	46
76.2430000000	35
76.2730000000	31
76.3030000000	30
76.3330000000	41
76.3630000000	40
76.3930000000	28
76.4230000000	41
76.4530000000	35
76.4830000000	31
76.5130000000	39
76.5430000000	35
76.5730000000	38
76.6030000000	46
76.6330000000	28
76.6630000000	33
76.6930000000	29
76.7230000000	51
76.7530000000	34
76.7830000000	35
76.8130000000	44
76.8430000000	31
76.8730000000	34
76.9030000000	28
76.9330000000	32
76.9630000000	35
76.9930000000	34
77.0230000000	50
77.0530000000	37
77.0830000000	40
77.1130000000	41
77.1430000000	44
77.1730000000	30
77.2030000000	44
77.2330000000	37
77.2630000000	32
77.2930000000	38
77.3230000000	37
77.3530000000	29
77.3830000000	34
77.4130000000	41
77.4430000000	38
77.4730000000	42
77.5030000000	50
77.5330000000	37
77.5630000000	31
77.5930000000	41
77.6230000000	38
77.6530000000	33
77.6830000000	33
77.7130000000	38
77.7430000000	32
77.7730000000	35
77.8030000000	38
77.8330000000	41
77.8630000000	31
77.8930000000	31
77.9230000000	36
77.9530000000	34
77.9830000000	28
78.0130000000	34
78.0430000000	35
78.0730000000	38
78.1030000000	36
78.1330000000	36
78.1630000000	35
78.1930000000	34
78.2230000000	28
78.2530000000	25
78.2830000000	28
78.3130000000	40
78.3430000000	31
78.3730000000	38
78.4030000000	40
78.4330000000	32
78.4630000000	39
78.4930000000	35
78.5230000000	36
78.5530000000	39
78.5830000000	40
78.6130000000	32
78.6430000000	39
78.6730000000	32
78.7030000000	33
78.7330000000	23
78.7630000000	35
78.7930000000	33
78.8230000000	39
78.8530000000	29
78.8830000000	35
78.9130000000	34
78.9430000000	29
78.9730000000	39
79.0030000000	34
79.0330000000	39
79.0630000000	39
79.0930000000	31
79.1230000000	47
79.1530000000	36
79.1830000000	31
79.2130000000	29
79.2430000000	34
79.2730000000	42
79.3030000000	39
79.3330000000	39
79.3630000000	35
79.3930000000	53
79.4230000000	37
79.4530000000	35
79.4830000000	32
79.5130000000	28
79.5430000000	30
79.5730000000	35
79.6030000000	31
79.6330000000	29
79.6630000000	40
79.6930000000	39
79.7230000000	38
79.7530000000	31
79.7830000000	33
79.8130000000	37
79.8430000000	40
79.8730000000	44
79.9030000000	31
79.9330000000	37
79.9630000000	27
79.9930000000	26
80.0230000000	32
80.0530000000	38
80.0830000000	36
80.1130000000	34
80.1430000000	35
80.1730000000	43
80.2030000000	31
80.2330000000	24
80.2630000000	23
80.2930000000	31
80.3230000000	38
80.3530000000	30
80.3830000000	37
80.4130000000	35
80.4430000000	28
80.4730000000	30
80.5030000000	39
80.5330000000	32
80.5630000000	25
80.5930000000	41
80.6230000000	30
80.6530000000	35
80.6830000000	35
80.7130000000	31
80.7430000000	34
80.7730000000	45
80.8030000000	31
80.8330000000	27
80.8630000000	25
80.8930000000	31
80.9230000000	25
80.9530000000	32
80.9830000000	41
81.0130000000	26
81.0430000000	34
81.0730000000	39
81.1030000000	32
81.1330000000	39
81.1630000000	40
81.1930000000	32
81.2230000000	36
81.2530000000	29
81.2830000000	29
81.3130000000	36
81.3430000000	40
81.3730000000	42
81.4030000000	40
81.4330000000	42
81.4630000000	34
81.4930000000	32
81.5230000000	36
81.5530000000	32
81.5830000000	30
81.6130000000	32
81.6430000000	34
81.6730000000	37
81.7030000000	29
81.7330000000	29
81.7630000000	34
81.7930000000	37
81.8230000000	39
81.8530000000	38
81.8830000000	46
81.9130000000	33
81.9430000000	36
81.9730000000	47
82.0030000000	43
82.0330000000	32
82.0630000000	36
82.0930000000	34
82.1230000000	37
82.1530000000	36
82.1830000000	31
82.2130000000	39
82.2430000000	33
82.2730000000	31
82.3030000000	33
82.3330000000	30
82.3630000000	38
82.3930000000	43
82.4230000000	31
82.4530000000	31
82.4830000000	36
82.5130000000	39
82.5430000000	37
82.5730000000	36
82.6030000000	34
82.6330000000	41
82.6630000000	40
82.6930000000	48
82.7230000000	39
82.7530000000	25
82.7830000000	27
82.8130000000	46
82.8430000000	45
82.8730000000	33
82.9030000000	35
82.9330000000	32
82.9630000000	38
82.9930000000	35
83.0230000000	36
83.0530000000	35
83.0830000000	33
83.1130000000	30
83.1430000000	32
83.1730000000	29
83.2030000000	35
83.2330000000	32
83.2630000000	33
83.2930000000	40
83.3230000000	50
83.3530000000	27
83.3830000000	35
83.4130000000	34
83.4430000000	31
83.4730000000	43
83.5030000000	32
83.5330000000	33
83.5630000000	35
83.5930000000	43
83.6230000000	32
83.6530000000	43
83.6830000000	44
83.7130000000	25
83.7430000000	43
83.7730000000	36
83.8030000000	33
83.8330000000	39
83.8630000000	35
83.8930000000	24
83.9230000000	29
83.9530000000	29
83.9830000000	26
84.0130000000	37
84.0430000000	37
84.0730000000	26
84.1030000000	35
84.1330000000	32
84.1630000000	25
84.1930000000	40
84.2230000000	29
84.2530000000	33
84.2830000000	41
84.3130000000	48
84.3430000000	32
84.3730000000	23
84.4030000000	35
84.4330000000	26
84.4630000000	26
84.4930000000	38
84.5230000000	23
84.5530000000	38
84.5830000000	36
84.6130000000	37
84.6430000000	46
84.6730000000	38
84.7030000000	31
84.7330000000	38
84.7630000000	39
84.7930000000	30
84.8230000000	30
84.8530000000	41
84.8830000000	50
84.9130000000	31
84.9430000000	34
84.9730000000	34
85.0030000000	24
85.0330000000	34
85.0630000000	43
85.0930000000	29
85.1230000000	41
85.1530000000	35
85.1830000000	31
85.2130000000	41
85.2430000000	26
85.2730000000	36
85.3030000000	42
85.3330000000	21
85.3630000000	30
85.3930000000	31
85.4230000000	40
85.4530000000	32
85.4830000000	28
85.5130000000	38
85.5430000000	33
85.5730000000	39
85.6030000000	37
85.6330000000	32
85.6630000000	34
85.6930000000	44
85.7230000000	24
85.7530000000	35
85.7830000000	27
85.8130000000	29
85.8430000000	41
85.8730000000	39
85.9030000000	33
85.9330000000	25
85.9630000000	27
85.9930000000	41
86.0230000000	28
86.0530000000	43
86.0830000000	41
86.1130000000	38
86.1430000000	30
86.1730000000	32
86.2030000000	24
86.2330000000	40
86.2630000000	36
86.2930000000	35
86.3230000000	45
86.3530000000	43
86.3830000000	33
86.4130000000	35
86.4430000000	37
86.4730000000	31
86.5030000000	32
86.5330000000	32
86.5630000000	36
86.5930000000	38
86.6230000000	30
86.6530000000	31
86.6830000000	40
86.7130000000	36
86.7430000000	31
86.7730000000	32
86.8030000000	36
86.8330000000	37
86.8630000000	36
86.8930000000	36
86.9230000000	30
86.9530000000	28
86.9830000000	35
87.0130000000	38
87.0430000000	45
87.0730000000	40
87.1030000000	37
87.1330000000	37
87.1630000000	37
87.1930000000	36
87.2230000000	32
87.2530000000	35
87.2830000000	34
87.3130000000	31
87.3430000000	37
87.3730000000	35
87.4030000000	42
87.4330000000	37
87.4630000000	33
87.4930000000	20
87.5230000000	25
87.5530000000	33
87.5830000000	45
87.6130000000	40
87.6430000000	36
87.6730000000	30
87.7030000000	33
87.7330000000	22
87.7630000000	29
87.7930000000	29
87.8230000000	34
87.8530000000	39
87.8830000000	27
87.9130000000	30
87.9430000000	33
87.9730000000	34
88.0030000000	37
88.0330000000	42
88.0630000000	44
88.0930000000	34
88.1230000000	36
88.1530000000	37
88.1830000000	26
88.2130000000	39
88.2430000000	25
88.2730000000	30
88.3030000000	41
88.3330000000	30
88.3630000000	39
88.3930000000	46
88.4230000000	30
88.4530000000	36
88.4830000000	38
88.5130000000	38
88.5430000000	24
88.5730000000	33
88.6030000000	28
88.6330000000	41
88.6630000000	26
88.6930000000	35
88.7230000000	33
88.7530000000	34
88.7830000000	24
88.8130000000	35
88.8430000000	43
88.8730000000	29
88.9030000000	37
88.9330000000	35
88.9630000000	22
88.9930000000	37
89.0230000000	31
89.0530000000	38
89.0830000000	38
89.1130000000	31
89.1430000000	37
89.1730000000	33
89.2030000000	39
89.2330000000	30
89.2630000000	27
89.2930000000	39
89.3230000000	41
89.3530000000	34
89.3830000000	40
89.4130000000	40
89.4430000000	31
89.4730000000	33
89.5030000000	31
89.5330000000	38
89.5630000000	44
89.5930000000	37
89.6230000000	28
89.6530000000	30
89.6830000000	33
89.7130000000	32
89.7430000000	36
89.7730000000	34
89.8030000000	32
89.8330000000	33
89.8630000000	34
89.8930000000	37
89.9230000000	35
89.9530000000	40
89.9830000000	39
90.0130000000	28
90.0430000000	35
90.0730000000	39
90.1030000000	30
90.1330000000	37
90.1630000000	31
90.1930000000	35
90.2230000000	41
90.2530000000	41
90.2830000000	33
90.3130000000	42
90.3430000000	39
90.3730000000	37
90.4030000000	34
90.4330000000	34
90.4630000000	28
90.4930000000	37
90.5230000000	45
90.5530000000	30
90.5830000000	36
90.6130000000	32
90.6430000000	27
90.6730000000	43
90.7030000000	30
90.7330000000	46
90.7630000000	40
90.7930000000	37
90.8230000000	38
90.8530000000	43
90.8830000000	31
90.9130000000	38
90.9430000000	44
90.9730000000	46
91.0030000000	43
91.0330000000	38
91.0630000000	35
91.0930000000	38
91.1230000000	41
91.1530000000	44
91.1830000000	51
91.2130000000	37
91.2430000000	36
91.2730000000	30
91.3030000000	31
91.3330000000	34
91.3630000000	28
91.3930000000	29
91.4230000000	35
91.4530000000	38
91.4830000000	43
91.5130000000	42
91.5430000000	36
91.5730000000	34
91.6030000000	30
91.6330000000	33
91.6630000000	40
91.6930000000	43
91.7230000000	44
91.7530000000	33
91.7830000000	42
91.8130000000	36
91.8430000000	35
91.8730000000	31
91.9030000000	32
91.9330000000	34
91.9630000000	41
91.9930000000	50
92.0230000000	30
92.0530000000	26
92.0830000000	35
92.1130000000	32
92.1430000000	33
92.1730000000	33
92.2030000000	37
92.2330000000	42
92.2630000000	39
92.2930000000	19
92.3230000000	38
92.3530000000	37
92.3830000000	37
92.4130000000	42
92.4430000000	39
92.4730000000	27
92.5030000000	30
92.5330000000	47
92.5630000000	34
92.5930000000	38
92.6230000000	31
92.6530000000	38
92.6830000000	28
92.7130000000	37
92.7430000000	33
92.7730000000	33
92.8030000000	36
92.8330000000	51
92.8630000000	37
92.8930000000	39
92.9230000000	35
92.9530000000	41
92.9830000000	42
93.0130000000	42
93.0430000000	40
93.0730000000	29
93.1030000000	32
93.1330000000	37
93.1630000000	32
93.1930000000	33
93.2230000000	36
93.2530000000	30
93.2830000000	25
93.3130000000	32
93.3430000000	33
93.3730000000	34
93.4030000000	40
93.4330000000	39
93.4630000000	34
93.4930000000	32
93.5230000000	33
93.5530000000	31
93.5830000000	30
93.6130000000	30
93.6430000000	29
93.6730000000	39
93.7030000000	31
93.7330000000	36
93.7630000000	34
93.7930000000	41
93.8230000000	41
93.8530000000	30
93.8830000000	35
93.9130000000	39
93.9430000000	44
93.9730000000	34
94.0030000000	56
94.0330000000	44
94.0630000000	41
94.0930000000	41
94.1230000000	29
94.1530000000	37
94.1830000000	33
94.2130000000	29
94.2430000000	27
94.2730000000	30
94.3030000000	28
94.3330000000	35
94.3630000000	32
94.3930000000	32
94.4230000000	36
94.4530000000	29
94.4830000000	37
94.5130000000	45
94.5430000000	35
94.5730000000	30
94.6030000000	33
94.6330000000	37
94.6630000000	35
94.6930000000	32
94.7230000000	31
94.7530000000	31
94.7830000000	35
94.8130000000	33
94.8430000000	42
94.8730000000	42
94.9030000000	38
94.9330000000	35
94.9630000000	32
94.9930000000	39
95.0230000000	44
95.0530000000	43
95.0830000000	45
95.1130000000	43
95.1430000000	33
95.1730000000	38
95.2030000000	29
95.2330000000	36
95.2630000000	35
95.2930000000	37
95.3230000000	32
95.3530000000	40
95.3830000000	20
95.4130000000	37
95.4430000000	35
95.4730000000	42
95.5030000000	41
95.5330000000	38
95.5630000000	42
95.5930000000	36
95.6230000000	35
95.6530000000	23
95.6830000000	27
95.7130000000	35
95.7430000000	31
95.7730000000	43
95.8030000000	43
95.8330000000	30
95.8630000000	41
95.8930000000	37
95.9230000000	26
95.9530000000	35
95.9830000000	32
96.0130000000	33
96.0430000000	37
96.0730000000	38
96.1030000000	40
96.1330000000	36
96.1630000000	36
96.1930000000	35
96.2230000000	38
96.2530000000	34
96.2830000000	21
96.3130000000	34
96.3430000000	34
96.3730000000	36
96.4030000000	43
96.4330000000	30
96.4630000000	45
96.4930000000	40
96.5230000000	29
96.5530000000	34
96.5830000000	42
96.6130000000	37
96.6430000000	35
96.6730000000	33
96.7030000000	30
96.7330000000	31
96.7630000000	46
96.7930000000	25
96.8230000000	35
96.8530000000	50
96.8830000000	37
96.9130000000	41
96.9430000000	31
96.9730000000	36
97.0030000000	42
97.0330000000	38
97.0630000000	31
97.0930000000	37
97.1230000000	43
97.1530000000	42
97.1830000000	46
97.2130000000	30
97.2430000000	31
97.2730000000	28
97.3030000000	31
97.3330000000	45
97.3630000000	39
97.3930000000	33
97.4230000000	33
97.4530000000	35
97.4830000000	46
97.5130000000	38
97.5430000000	28
97.5730000000	38
97.6030000000	33
97.6330000000	34
97.6630000000	33
97.6930000000	37
97.7230000000	28
97.7530000000	36
97.7830000000	39
97.8130000000	33
97.8430000000	40
97.8730000000	30
97.9030000000	26
97.9330000000	40
97.9630000000	32
97.9930000000	32
98.0230000000	34
98.0530000000	29
98.0830000000	44
98.1130000000	30
98.1430000000	43
98.1730000000	29
98.2030000000	26
98.2330000000	28
98.2630000000	28
98.2930000000	29
98.3230000000	38
98.3530000000	35
98.3830000000	27
98.4130000000	34
98.4430000000	42
98.4730000000	38
98.5030000000	37
98.5330000000	39
98.5630000000	29
98.5930000000	26
98.6230000000	33
98.6530000000	37
98.6830000000	39
98.7130000000	44
98.7430000000	40
98.7730000000	35
98.8030000000	29
98.8330000000	25
98.8630000000	41
98.8930000000	43
98.9230000000	40
98.9530000000	48
98.9830000000	34
99.0130000000	34
99.0430000000	41
99.0730000000	46
99.1030000000	33
99.1330000000	35
99.1630000000	39
99.1930000000	40
99.2230000000	44
99.2530000000	38
99.2830000000	35
99.3130000000	34
99.3430000000	34
99.3730000000	37
99.4030000000	39
99.4330000000	30
99.4630000000	44
99.4930000000	31
99.5230000000	27
99.5530000000	34
99.5830000000	31
99.6130000000	42
99.6430000000	42
99.6730000000	33
99.7030000000	25
99.7330000000	34
99.7630000000	38
99.7930000000	33
99.8230000000	41
99.8530000000	35
99.8830000000	33
99.9130000000	32
99.9430000000	36
99.9730000000	40
100.0030000000	36
100.0330000000	28
100.0630000000	30
100.0930000000	40
100.1230000000	40
100.1530000000	39
100.1830000000	35
100.2130000000	31
100.2430000000	37
100.2730000000	41
100.3030000000	37
100.3330000000	31
100.3630000000	33
100.3930000000	39
100.4230000000	27
100.4530000000	26
100.4830000000	43
100.5130000000	24
100.5430000000	28
100.5730000000	37
100.6030000000	19
100.6330000000	34
100.6630000000	42
100.6930000000	33
100.7230000000	41
100.7530000000	37
100.7830000000	47
100.8130000000	38
100.8430000000	33
100.8730000000	43
100.9030000000	36
100.9330000000	40
100.9630000000	30
100.9930000000	34
101.0230000000	37
101.0530000000	34
101.0830000000	25
101.1130000000	18
101.1430000000	35
101.1730000000	38
101.2030000000	38
101.2330000000	35
101.2630000000	35
101.2930000000	24
101.3230000000	34
101.3530000000	24
101.3830000000	42
101.4130000000	40
101.4430000000	31
101.4730000000	35
101.5030000000	41
101.5330000000	43
101.5630000000	40
101.5930000000	35
101.6230000000	31
101.6530000000	30
101.6830000000	26
101.7130000000	24
101.7430000000	38
101.7730000000	41
101.8030000000	30
101.8330000000	31
101.8630000000	31
101.8930000000	28
101.9230000000	33
101.9530000000	35
101.9830000000	33
102.0130000000	29
102.0430000000	30
102.0730000000	34
102.1030000000	24
102.1330000000	32
102.1630000000	33
102.1930000000	35
102.2230000000	36
102.2530000000	28
102.2830000000	32
102.3130000000	39
102.3430000000	35
102.3730000000	35
102.4030000000	25
102.4330000000	37
102.4630000000	34
102.4930000000	34
102.5230000000	33
102.5530000000	41
102.5830000000	23
102.6130000000	26
102.6430000000	32
102.6730000000	42
102.7030000000	37
102.7330000000	38
102.7630000000	32
102.7930000000	29
102.8230000000	38
102.8530000000	42
102.8830000000	32
102.9130000000	25
102.9430000000	38
102.9730000000	39
103.0030000000	41
103.0330000000	42
103.0630000000	38
103.0930000000	28
103.1230000000	23
103.1530000000	27
103.1830000000	32
103.2130000000	32
103.2430000000	31
103.2730000000	34
103.3030000000	32
103.3330000000	25
103.3630000000	39
103.3930000000	40
103.4230000000	27
103.4530000000	30
103.4830000000	39
103.5130000000	42
103.5430000000	35
103.5730000000	29
103.6030000000	27
103.6330000000	34
103.6630000000	32
103.6930000000	39
103.7230000000	36
103.7530000000	32
103.7830000000	28
103.8130000000	39
103.8430000000	47
103.8730000000	34
103.9030000000	28
103.9330000000	26
103.9630000000	31
103.9930000000	33
104.0230000000	41
104.0530000000	32
104.0830000000	29
104.1130000000	27
104.1430000000	37
104.1730000000	31
104.2030000000	34
104.2330000000	38
104.2630000000	32
104.2930000000	37
104.3230000000	36
104.3530000000	27
104.3830000000	23
104.4130000000	34
104.4430000000	38
104.4730000000	32
104.5030000000	27
104.5330000000	36
104.5630000000	37
104.5930000000	24
104.6230000000	34
104.6530000000	30
104.6830000000	33
104.7130000000	33
104.7430000000	39
104.7730000000	31
104.8030000000	28
104.8330000000	34
104.8630000000	32
104.8930000000	35
104.9230000000	34
104.9530000000	32
104.9830000000	38
105.0130000000	39
105.0430000000	35
105.0730000000	26
105.1030000000	31
105.1330000000	30
105.1630000000	31
105.1930000000	40
105.2230000000	27
105.2530000000	32
105.2830000000	35
105.3130000000	29
105.3430000000	35
105.3730000000	39
105.4030000000	36
105.4330000000	27
105.4630000000	30
105.4930000000	30
105.5230000000	35
105.5530000000	35
105.5830000000	27
105.6130000000	31
105.6430000000	30
105.6730000000	29
105.7030000000	38
105.7330000000	32
105.7630000000	36
105.7930000000	29
105.8230000000	30
105.8530000000	32
105.8830000000	28
105.9130000000	38
105.9430000000	47
105.9730000000	36
106.0030000000	24
106.0330000000	26
106.0630000000	33
106.0930000000	39
106.1230000000	24
106.1530000000	31
106.1830000000	34
106.2130000000	30
106.2430000000	35
106.2730000000	36
106.3030000000	34
106.3330000000	33
106.3630000000	28
106.3930000000	40
106.4230000000	26
106.4530000000	30
106.4830000000	27
106.5130000000	32
106.5430000000	30
106.5730000000	29
106.6030000000	33
106.6330000000	30
106.6630000000	23
106.6930000000	32
106.7230000000	40
106.7530000000	31
106.7830000000	23
106.8130000000	30
106.8430000000	21
106.8730000000	30
106.9030000000	33
106.9330000000	34
106.9630000000	33
106.9930000000	45
107.0230000000	34
107.0530000000	30
107.0830000000	37
107.1130000000	36
107.1430000000	40
107.1730000000	24
107.2030000000	47
107.2330000000	39
107.2630000000	35
107.2930000000	36
107.3230000000	33
107.3530000000	30
107.3830000000	26
107.4130000000	33
107.4430000000	33
107.4730000000	25
107.5030000000	23
107.5330000000	28
107.5630000000	27
107.5930000000	23
107.6230000000	30
107.6530000000	27
107.6830000000	27
107.7130000000	32
107.7430000000	36
107.7730000000	33
107.8030000000	25
107.8330000000	32
107.8630000000	35
107.8930000000	27
107.9230000000	31
107.9530000000	36
107.9830000000	36
108.0130000000	40
108.0430000000	34
108.0730000000	41
108.1030000000	28
108.1330000000	24
108.1630000000	36
108.1930000000	37
108.2230000000	34
108.2530000000	24
108.2830000000	24
108.3130000000	33
108.3430000000	21
108.3730000000	25
108.4030000000	29
108.4330000000	25
108.4630000000	26
108.4930000000	27
108.5230000000	33
108.5530000000	40
108.5830000000	24
108.6130000000	22
108.6430000000	27
108.6730000000	36
108.7030000000	37
108.7330000000	34
108.7630000000	23
108.7930000000	36
108.8230000000	36
108.8530000000	36
108.8830000000	33
108.9130000000	34
108.9430000000	40
108.9730000000	33
109.0030000000	33
109.0330000000	42
109.0630000000	33
109.0930000000	44
109.1230000000	31
109.1530000000	32
109.1830000000	35
109.2130000000	34
109.2430000000	35
109.2730000000	33
109.3030000000	41
109.3330000000	39
109.3630000000	34
109.3930000000	26
109.4230000000	36
109.4530000000	21
109.4830000000	41
109.5130000000	31
109.5430000000	30
109.5730000000	31
109.6030000000	32
109.6330000000	32
109.6630000000	38
109.6930000000	26
109.7230000000	20
109.7530000000	28
109.7830000000	34
109.8130000000	38
109.8430000000	21
109.8730000000	48
109.9030000000	36
109.9330000000	41
109.9630000000	35
109.9930000000	33
110.0230000000	40
110.0530000000	28
110.0830000000	40
110.1130000000	41
110.1430000000	47
110.1730000000	31
110.2030000000	31
110.2330000000	34
110.2630000000	32
110.2930000000	25
110.3230000000	30
110.3530000000	34
110.3830000000	39
110.4130000000	39
110.4430000000	24
110.4730000000	25
110.5030000000	38
110.5330000000	41
110.5630000000	31
110.5930000000	30
110.6230000000	41
110.6530000000	39
110.6830000000	37
110.7130000000	32
110.7430000000	37
110.7730000000	35
110.8030000000	35
110.8330000000	32
110.8630000000	29
110.8930000000	29
110.9230000000	31
110.9530000000	28
110.9830000000	32
111.0130000000	33
111.0430000000	33
111.0730000000	31
111.1030000000	44
111.1330000000	39
111.1630000000	30
111.1930000000	35
111.2230000000	32
111.2530000000	41
111.2830000000	28
111.3130000000	30
111.3430000000	42
111.3730000000	38
111.4030000000	38
111.4330000000	24
111.4630000000	24
111.4930000000	36
111.5230000000	30
111.5530000000	33
111.5830000000	27
111.6130000000	36
111.6430000000	33
111.6730000000	39
111.7030000000	27
111.7330000000	44
111.7630000000	30
111.7930000000	37
111.8230000000	34
111.8530000000	38
111.8830000000	44
111.9130000000	27
111.9430000000	33
111.9730000000	33
112.0030000000	30
112.0330000000	25
112.0630000000	30
112.0930000000	44
112.1230000000	48
112.1530000000	33
112.1830000000	42
112.2130000000	35
112.2430000000	28
112.2730000000	34
112.3030000000	36
112.3330000000	31
112.3630000000	23
112.3930000000	36
112.4230000000	22
112.4530000000	40
112.4830000000	34
112.5130000000	32
112.5430000000	36
112.5730000000	35
112.6030000000	25
112.6330000000	29
112.6630000000	29
112.6930000000	32
112.7230000000	44
112.7530000000	41
112.7830000000	25
112.8130000000	19
112.8430000000	36
112.8730000000	41
112.9030000000	35
112.9330000000	30
112.9630000000	30
112.9930000000	42
113.0230000000	30
113.0530000000	31
113.0830000000	31
113.1130000000	41
113.1430000000	30
113.1730000000	41
113.2030000000	30
113.2330000000	42
113.2630000000	29
113.2930000000	29
113.3230000000	30
113.3530000000	36
113.3830000000	41
113.4130000000	34
113.4430000000	29
113.4730000000	36
113.5030000000	33
113.5330000000	36
113.5630000000	37
113.5930000000	30
113.6230000000	29
113.6530000000	29
113.6830000000	26
113.7130000000	37
113.7430000000	38
113.7730000000	29
113.8030000000	27
113.8330000000	33
113.8630000000	32
113.8930000000	28
113.9230000000	33
113.9530000000	37
113.9830000000	30
114.0130000000	29
114.0430000000	28
114.0730000000	25
114.1030000000	42
114.1330000000	30
114.1630000000	21
114.1930000000	37
114.2230000000	35
114.2530000000	27
114.2830000000	28
114.3130000000	34
114.3430000000	32
114.3730000000	37
114.4030000000	31
114.4330000000	31
114.4630000000	1
114.4930000000	1
114.5230000000	1
114.5530000000	1
114.5830000000	1
