0.3130000000	1
0.3430000000	1
0.3730000000	2
0.4030000000	1
0.4330000000	1
0.4630000000	1
0.4930000000	1
0.5230000000	1
0.5530000000	1
0.5830000000	1
0.6130000000	1
0.6430000000	1
0.6730000000	1
0.7030000000	1
0.7330000000	1
0.7630000000	1
0.7930000000	1
0.8230000000	2
0.8530000000	1
0.8830000000	1
0.9130000000	1
0.9430000000	1
0.9730000000	2
1.0030000000	1
1.0330000000	1
1.0630000000	1
1.0930000000	1
1.1230000000	1
1.1530000000	1
1.1830000000	1
1.2130000000	1
1.2430000000	1
1.2730000000	1
1.3030000000	1
1.3330000000	1
1.3630000000	1
1.3930000000	1
1.4230000000	1
1.4530000000	1
1.4830000000	1
1.5130000000	2
1.5430000000	1
1.5730000000	1
1.6030000000	1
1.6330000000	2
1.6630000000	1
1.6930000000	2
1.7230000000	1
1.7530000000	1
1.7830000000	2
1.8130000000	1
1.8430000000	2
1.8730000000	2
1.9030000000	2
1.9330000000	2
1.9630000000	1
1.9930000000	1
2.0230000000	1
2.0530000000	1
2.0830000000	1
2.1130000000	2
2.1430000000	1
2.1730000000	2
2.2030000000	2
2.2330000000	3
2.2630000000	2
2.2930000000	1
2.3230000000	2
2.3530000000	2
2.3830000000	1
2.4130000000	1
2.4430000000	2
2.4730000000	2
2.5030000000	1
2.5330000000	1
2.5630000000	1
2.5930000000	1
2.6230000000	2
2.6530000000	2
2.6830000000	1
2.7130000000	1
2.7430000000	2
2.7730000000	1
2.8030000000	1
2.8330000000	2
2.8630000000	3
2.8930000000	1
2.9230000000	3
2.9530000000	2
2.9830000000	1
3.0130000000	2
3.0430000000	1
3.0730000000	2
3.1030000000	1
3.1330000000	2
3.1630000000	1
3.1930000000	2
3.2230000000	1
3.2530000000	1
3.2830000000	1
3.3130000000	1
3.3430000000	1
3.3730000000	1
3.4030000000	2
3.4330000000	1
3.4630000000	2
3.4930000000	4
3.5230000000	1
3.5530000000	3
3.5830000000	3
3.6130000000	4
3.6430000000	0
3.6730000000	2
3.7030000000	4
3.7330000000	3
3.7630000000	3
3.7930000000	1
3.8230000000	4
3.8530000000	1
3.8830000000	1
3.9130000000	2
3.9430000000	5
3.9730000000	2
4.0030000000	4
4.0330000000	4
4.0630000000	1
4.0930000000	2
4.1230000000	4
4.1530000000	3
4.1830000000	3
4.2130000000	4
4.2430000000	3
4.2730000000	4
4.3030000000	5
4.3330000000	6
4.3630000000	6
4.3930000000	5
4.4230000000	8
4.4530000000	10
4.4830000000	7
4.5130000000	20
4.5430000000	31
4.5730000000	54
4.6030000000	75
4.6330000000	86
4.6630000000	128
4.6930000000	126
4.7230000000	150
4.7530000000	130
4.7830000000	143
4.8130000000	123
4.8430000000	152
4.8730000000	153
4.9030000000	124
4.9330000000	119
4.9630000000	146
4.9930000000	116
5.0230000000	160
5.0530000000	157
5.0830000000	124
5.1130000000	135
5.1430000000	148
5.1730000000	156
5.2030000000	154
5.2330000000	134
5.2630000000	160
5.2930000000	136
5.3230000000	133
5.3530000000	151
5.3830000000	148
5.4130000000	134
5.4430000000	145
5.4730000000	158
5.5030000000	145
5.5330000000	153
5.5630000000	140
5.5930000000	159
5.6230000000	145
5.6530000000	138
5.6830000000	142
5.7130000000	128
5.7430000000	145
5.7730000000	131
5.8030000000	118
5.8330000000	157
5.8630000000	132
5.8930000000	141
5.9230000000	151
5.9530000000	163
5.9830000000	139
6.0130000000	148
6.0430000000	156
6.0730000000	148
6.1030000000	138
6.1330000000	157
6.1630000000	150
6.1930000000	153
6.2230000000	146
6.2530000000	125
6.2830000000	135
6.3130000000	146
6.3430000000	143
6.3730000000	143
6.4030000000	136
6.4330000000	169
6.4630000000	156
6.4930000000	157
6.5230000000	138
6.5530000000	138
6.5830000000	165
6.6130000000	152
6.6430000000	143
6.6730000000	148
6.7030000000	138
6.7330000000	136
6.7630000000	147
6.7930000000	137
6.8230000000	145
6.8530000000	141
6.8830000000	153
6.9130000000	159
6.9430000000	143
6.9730000000	138
7.0030000000	144
7.0330000000	155
7.0630000000	151
7.0930000000	144
7.1230000000	162
7.1530000000	125
7.1830000000	139
7.2130000000	129
7.2430000000	137
7.2730000000	148
7.3030000000	150
7.3330000000	147
7.3630000000	135
7.3930000000	150
7.4230000000	155
7.4530000000	154
7.4830000000	161
7.5130000000	143
7.5430000000	125
7.5730000000	123
7.6030000000	126
7.6330000000	147
7.6630000000	142
7.6930000000	128
7.7230000000	156
7.7530000000	164
7.7830000000	139
7.8130000000	135
7.8430000000	134
7.8730000000	141
7.9030000000	143
7.9330000000	142
7.9630000000	147
7.9930000000	143
8.0230000000	152
8.0530000000	139
8.0830000000	135
8.1130000000	152
8.1430000000	143
8.1730000000	132
8.2030000000	137
8.2330000000	129
8.2630000000	138
8.2930000000	141
8.3230000000	126
8.3530000000	144
8.3830000000	142
8.4130000000	173
8.4430000000	136
8.4730000000	139
8.5030000000	152
8.5330000000	147
8.5630000000	153
8.5930000000	122
8.6230000000	151
8.6530000000	132
8.6830000000	146
8.7130000000	153
8.7430000000	142
8.7730000000	147
8.8030000000	135
8.8330000000	136
8.8630000000	152
8.8930000000	147
8.9230000000	143
8.9530000000	165
8.9830000000	149
9.0130000000	155
9.0430000000	149
9.0730000000	150
9.1030000000	156
9.1330000000	137
9.1630000000	177
9.1930000000	149
9.2230000000	151
9.2530000000	156
9.2830000000	148
9.3130000000	150
9.3430000000	154
9.3730000000	140
9.4030000000	137
9.4330000000	127
9.4630000000	120
9.4930000000	147
9.5230000000	134
9.5530000000	129
9.5830000000	141
9.6130000000	138
9.6430000000	155
9.6730000000	129
9.7030000000	122
9.7330000000	149
9.7630000000	155
9.7930000000	148
9.8230000000	151
9.8530000000	139
9.8830000000	139
9.9130000000	164
9.9430000000	164
9.9730000000	139
10.0030000000	162
10.0330000000	132
10.0630000000	155
10.0930000000	147
10.1230000000	118
10.1530000000	154
10.1830000000	146
10.2130000000	158
10.2430000000	172
10.2730000000	148
10.3030000000	140
10.3330000000	158
10.3630000000	164
10.3930000000	143
10.4230000000	156
10.4530000000	155
10.4830000000	159
10.5130000000	123
10.5430000000	132
10.5730000000	153
10.6030000000	150
10.6330000000	145
10.6630000000	122
10.6930000000	152
10.7230000000	149
10.7530000000	150
10.7830000000	145
10.8130000000	149
10.8430000000	142
10.8730000000	147
10.9030000000	143
10.9330000000	139
10.9630000000	150
10.9930000000	153
11.0230000000	149
11.0530000000	136
11.0830000000	134
11.1130000000	132
11.1430000000	171
11.1730000000	143
11.2030000000	155
11.2330000000	142
11.2630000000	126
11.2930000000	116
11.3230000000	146
11.3530000000	166
11.3830000000	132
11.4130000000	153
11.4430000000	156
11.4730000000	144
11.5030000000	146
11.5330000000	143
11.5630000000	145
11.5930000000	151
11.6230000000	157
11.6530000000	151
11.6830000000	147
11.7130000000	129
11.7430000000	162
11.7730000000	145
11.8030000000	164
11.8330000000	152
11.8630000000	134
11.8930000000	134
11.9230000000	137
11.9530000000	149
11.9830000000	148
12.0130000000	147
12.0430000000	128
12.0730000000	151
12.1030000000	148
12.1330000000	144
12.1630000000	130
12.1930000000	141
12.2230000000	147
12.2530000000	156
12.2830000000	152
12.3130000000	148
12.3430000000	129
12.3730000000	125
12.4030000000	138
12.4330000000	153
12.4630000000	147
12.4930000000	158
12.5230000000	157
12.5530000000	133
12.5830000000	140
12.6130000000	138
12.6430000000	151
12.6730000000	173
12.7030000000	151
12.7330000000	139
12.7630000000	157
12.7930000000	157
12.8230000000	138
12.8530000000	151
12.8830000000	155
12.9130000000	132
12.9430000000	133
12.9730000000	141
13.0030000000	150
13.0330000000	153
13.0630000000	141
13.0930000000	137
13.1230000000	143
13.1530000000	146
13.1830000000	138
13.2130000000	148
13.2430000000	136
13.2730000000	144
13.3030000000	169
13.3330000000	136
13.3630000000	131
13.3930000000	160
13.4230000000	132
13.4530000000	157
13.4830000000	155
13.5130000000	125
13.5430000000	128
13.5730000000	152
13.6030000000	135
13.6330000000	138
13.6630000000	120
13.6930000000	129
13.7230000000	132
13.7530000000	140
13.7830000000	129
13.8130000000	138
13.8430000000	169
13.8730000000	142
13.9030000000	158
13.9330000000	144
13.9630000000	155
13.9930000000	158
14.0230000000	130
14.0530000000	150
14.0830000000	136
14.1130000000	151
14.1430000000	151
14.1730000000	164
14.2030000000	140
14.2330000000	147
14.2630000000	132
14.2930000000	138
14.3230000000	143
14.3530000000	140
14.3830000000	166
14.4130000000	163
14.4430000000	135
14.4730000000	137
14.5030000000	135
14.5330000000	145
14.5630000000	152
14.5930000000	163
14.6230000000	134
14.6530000000	144
14.6830000000	157
14.7130000000	140
14.7430000000	138
14.7730000000	139
14.8030000000	122
14.8330000000	156
14.8630000000	152
14.8930000000	162
14.9230000000	158
14.9530000000	161
14.9830000000	152
15.0130000000	150
15.0430000000	153
15.0730000000	151
15.1030000000	162
15.1330000000	158
15.1630000000	153
15.1930000000	160
15.2230000000	161
15.2530000000	154
15.2830000000	164
15.3130000000	131
15.3430000000	149
15.3730000000	135
15.4030000000	154
15.4330000000	162
15.4630000000	154
15.4930000000	147
15.5230000000	152
15.5530000000	138
15.5830000000	155
15.6130000000	121
15.6430000000	140
15.6730000000	145
15.7030000000	171
15.7330000000	137
15.7630000000	146
15.7930000000	129
15.8230000000	152
15.8530000000	142
15.8830000000	156
15.9130000000	128
15.9430000000	145
15.9730000000	147
16.0030000000	149
16.0330000000	130
16.0630000000	152
16.0930000000	141
16.1230000000	130
16.1530000000	149
16.1830000000	130
16.2130000000	146
16.2430000000	161
16.2730000000	136
16.3030000000	142
16.3330000000	129
16.3630000000	139
16.3930000000	143
16.4230000000	124
16.4530000000	135
16.4830000000	138
16.5130000000	139
16.5430000000	147
16.5730000000	156
16.6030000000	144
16.6330000000	152
16.6630000000	158
16.6930000000	132
16.7230000000	132
16.7530000000	140
16.7830000000	128
16.8130000000	160
16.8430000000	138
16.8730000000	141
16.9030000000	146
16.9330000000	132
16.9630000000	137
16.9930000000	128
17.0230000000	165
17.0530000000	155
17.0830000000	131
17.1130000000	142
17.1430000000	149
17.1730000000	160
17.2030000000	129
17.2330000000	135
17.2630000000	140
17.2930000000	127
17.3230000000	156
17.3530000000	146
17.3830000000	144
17.4130000000	148
17.4430000000	174
17.4730000000	147
17.5030000000	139
17.5330000000	153
17.5630000000	148
17.5930000000	137
17.6230000000	150
17.6530000000	149
17.6830000000	152
17.7130000000	150
17.7430000000	152
17.7730000000	148
17.8030000000	150
17.8330000000	149
17.8630000000	131
17.8930000000	149
17.9230000000	156
17.9530000000	141
17.9830000000	139
18.0130000000	136
18.0430000000	141
18.0730000000	143
18.1030000000	130
18.1330000000	129
18.1630000000	140
18.1930000000	155
18.2230000000	156
18.2530000000	142
18.2830000000	161
18.3130000000	139
18.3430000000	135
18.3730000000	141
18.4030000000	131
18.4330000000	147
18.4630000000	138
18.4930000000	156
18.5230000000	145
18.5530000000	138
18.5830000000	159
18.6130000000	152
18.6430000000	155
18.6730000000	152
18.7030000000	151
18.7330000000	163
18.7630000000	151
18.7930000000	152
18.8230000000	142
18.8530000000	168
18.8830000000	171
18.9130000000	195
18.9430000000	156
18.9730000000	163
19.0030000000	159
19.0330000000	154
19.0630000000	167
19.0930000000	160
19.1230000000	164
19.1530000000	176
19.1830000000	178
19.2130000000	149
19.2430000000	158
19.2730000000	138
19.3030000000	139
19.3330000000	147
19.3630000000	150
19.3930000000	168
19.4230000000	157
19.4530000000	151
19.4830000000	150
19.5130000000	144
19.5430000000	137
19.5730000000	133
19.6030000000	151
19.6330000000	151
19.6630000000	175
19.6930000000	142
19.7230000000	139
19.7530000000	136
19.7830000000	141
19.8130000000	152
19.8430000000	141
19.8730000000	182
19.9030000000	153
19.9330000000	123
19.9630000000	154
19.9930000000	170
20.0230000000	153
20.0530000000	152
20.0830000000	161
20.1130000000	152
20.1430000000	171
20.1730000000	156
20.2030000000	150
20.2330000000	170
20.2630000000	178
20.2930000000	152
20.3230000000	151
20.3530000000	201
20.3830000000	178
20.4130000000	178
20.4430000000	176
20.4730000000	200
20.5030000000	188
20.5330000000	197
20.5630000000	190
20.5930000000	237
20.6230000000	219
20.6530000000	306
20.6830000000	423
20.7130000000	662
20.7430000000	1143
20.7730000000	1676
20.8030000000	2586
20.8330000000	4108
20.8630000000	6310
20.8930000000	7648
20.9230000000	6598
20.9530000000	4320
20.9830000000	2471
21.0130000000	1442
21.0430000000	964
21.0730000000	555
21.1030000000	349
21.1330000000	274
21.1630000000	248
21.1930000000	187
21.2230000000	174
21.2530000000	171
21.2830000000	186
21.3130000000	175
21.3430000000	160
21.3730000000	174
21.4030000000	149
21.4330000000	134
21.4630000000	163
21.4930000000	153
21.5230000000	145
21.5530000000	158
21.5830000000	137
21.6130000000	160
21.6430000000	165
21.6730000000	165
21.7030000000	170
21.7330000000	173
21.7630000000	150
21.7930000000	170
21.8230000000	146
21.8530000000	139
21.8830000000	152
21.9130000000	173
21.9430000000	159
21.9730000000	147
22.0030000000	151
22.0330000000	155
22.0630000000	159
22.0930000000	175
22.1230000000	166
22.1530000000	169
22.1830000000	171
22.2130000000	156
22.2430000000	184
22.2730000000	184
22.3030000000	171
22.3330000000	167
22.3630000000	181
22.3930000000	186
22.4230000000	162
22.4530000000	160
22.4830000000	180
22.5130000000	182
22.5430000000	180
22.5730000000	176
22.6030000000	152
22.6330000000	164
22.6630000000	165
22.6930000000	138
22.7230000000	168
22.7530000000	160
22.7830000000	148
22.8130000000	190
22.8430000000	164
22.8730000000	162
22.9030000000	146
22.9330000000	179
22.9630000000	184
22.9930000000	169
23.0230000000	170
23.0530000000	181
23.0830000000	169
23.1130000000	178
23.1430000000	180
23.1730000000	161
23.2030000000	143
23.2330000000	163
23.2630000000	158
23.2930000000	158
23.3230000000	182
23.3530000000	180
23.3830000000	163
23.4130000000	165
23.4430000000	170
23.4730000000	170
23.5030000000	182
23.5330000000	194
23.5630000000	154
23.5930000000	164
23.6230000000	153
23.6530000000	150
23.6830000000	190
23.7130000000	177
23.7430000000	165
23.7730000000	165
23.8030000000	192
23.8330000000	157
23.8630000000	182
23.8930000000	193
23.9230000000	162
23.9530000000	184
23.9830000000	175
24.0130000000	184
24.0430000000	156
24.0730000000	169
24.1030000000	175
24.1330000000	187
24.1630000000	187
24.1930000000	163
24.2230000000	154
24.2530000000	164
24.2830000000	179
24.3130000000	161
24.3430000000	145
24.3730000000	159
24.4030000000	174
24.4330000000	170
24.4630000000	155
24.4930000000	155
24.5230000000	144
24.5530000000	158
24.5830000000	187
24.6130000000	189
24.6430000000	165
24.6730000000	185
24.7030000000	166
24.7330000000	157
24.7630000000	176
24.7930000000	164
24.8230000000	172
24.8530000000	164
24.8830000000	188
24.9130000000	167
24.9430000000	180
24.9730000000	169
25.0030000000	171
25.0330000000	152
25.0630000000	181
25.0930000000	159
25.1230000000	147
25.1530000000	156
25.1830000000	218
25.2130000000	182
25.2430000000	173
25.2730000000	168
25.3030000000	178
25.3330000000	194
25.3630000000	183
25.3930000000	188
25.4230000000	176
25.4530000000	239
25.4830000000	242
25.5130000000	289
25.5430000000	239
25.5730000000	216
25.6030000000	196
25.6330000000	202
25.6630000000	169
25.6930000000	169
25.7230000000	176
25.7530000000	162
25.7830000000	152
25.8130000000	173
25.8430000000	158
25.8730000000	160
25.9030000000	140
25.9330000000	144
25.9630000000	162
25.9930000000	170
26.0230000000	155
26.0530000000	159
26.0830000000	157
26.1130000000	160
26.1430000000	166
26.1730000000	169
26.2030000000	160
26.2330000000	171
26.2630000000	154
26.2930000000	151
26.3230000000	155
26.3530000000	155
26.3830000000	149
26.4130000000	157
26.4430000000	150
26.4730000000	146
26.5030000000	173
26.5330000000	162
26.5630000000	143
26.5930000000	150
26.6230000000	162
26.6530000000	141
26.6830000000	157
26.7130000000	160
26.7430000000	162
26.7730000000	175
26.8030000000	170
26.8330000000	161
26.8630000000	171
26.8930000000	158
26.9230000000	148
26.9530000000	158
26.9830000000	165
27.0130000000	158
27.0430000000	169
27.0730000000	160
27.1030000000	149
27.1330000000	154
27.1630000000	148
27.1930000000	166
27.2230000000	173
27.2530000000	177
27.2830000000	157
27.3130000000	157
27.3430000000	139
27.3730000000	150
27.4030000000	146
27.4330000000	127
27.4630000000	159
27.4930000000	167
27.5230000000	140
27.5530000000	139
27.5830000000	159
27.6130000000	163
27.6430000000	151
27.6730000000	161
27.7030000000	162
27.7330000000	144
27.7630000000	137
27.7930000000	152
27.8230000000	165
27.8530000000	162
27.8830000000	143
27.9130000000	185
27.9430000000	155
27.9730000000	163
28.0030000000	122
28.0330000000	150
28.0630000000	153
28.0930000000	160
28.1230000000	156
28.1530000000	152
28.1830000000	159
28.2130000000	142
28.2430000000	146
28.2730000000	165
28.3030000000	148
28.3330000000	155
28.3630000000	154
28.3930000000	153
28.4230000000	154
28.4530000000	168
28.4830000000	159
28.5130000000	159
28.5430000000	139
28.5730000000	142
28.6030000000	149
28.6330000000	148
28.6630000000	153
28.6930000000	163
28.7230000000	140
28.7530000000	137
28.7830000000	145
28.8130000000	148
28.8430000000	139
28.8730000000	127
28.9030000000	140
28.9330000000	158
28.9630000000	138
28.9930000000	174
29.0230000000	125
29.0530000000	143
29.0830000000	165
29.1130000000	136
29.1430000000	132
29.1730000000	138
29.2030000000	129
29.2330000000	127
29.2630000000	139
29.2930000000	148
29.3230000000	152
29.3530000000	133
29.3830000000	151
29.4130000000	139
29.4430000000	138
29.4730000000	147
29.5030000000	133
29.5330000000	124
29.5630000000	109
29.5930000000	141
29.6230000000	135
29.6530000000	132
29.6830000000	139
29.7130000000	133
29.7430000000	160
29.7730000000	117
29.8030000000	137
29.8330000000	149
29.8630000000	138
29.8930000000	161
29.9230000000	149
29.9530000000	132
29.9830000000	159
30.0130000000	156
30.0430000000	162
30.0730000000	143
30.1030000000	158
30.1330000000	133
30.1630000000	129
30.1930000000	139
30.2230000000	163
30.2530000000	119
30.2830000000	127
30.3130000000	133
30.3430000000	139
30.3730000000	142
30.4030000000	136
30.4330000000	143
30.4630000000	135
30.4930000000	150
30.5230000000	146
30.5530000000	134
30.5830000000	127
30.6130000000	153
30.6430000000	128
30.6730000000	128
30.7030000000	120
30.7330000000	136
30.7630000000	138
30.7930000000	140
30.8230000000	133
30.8530000000	112
30.8830000000	129
30.9130000000	157
30.9430000000	122
30.9730000000	128
31.0030000000	136
31.0330000000	113
31.0630000000	148
31.0930000000	128
31.1230000000	134
31.1530000000	160
31.1830000000	146
31.2130000000	148
31.2430000000	131
31.2730000000	149
31.3030000000	146
31.3330000000	132
31.3630000000	135
31.3930000000	149
31.4230000000	126
31.4530000000	124
31.4830000000	127
31.5130000000	132
31.5430000000	134
31.5730000000	117
31.6030000000	116
31.6330000000	138
31.6630000000	127
31.6930000000	121
31.7230000000	120
31.7530000000	127
31.7830000000	113
31.8130000000	134
31.8430000000	140
31.8730000000	143
31.9030000000	142
31.9330000000	133
31.9630000000	144
31.9930000000	127
32.0230000000	128
32.0530000000	120
32.0830000000	118
32.1130000000	137
32.1430000000	159
32.1730000000	129
32.2030000000	110
32.2330000000	136
32.2630000000	135
32.2930000000	120
32.3230000000	135
32.3530000000	127
32.3830000000	118
32.4130000000	147
32.4430000000	114
32.4730000000	136
32.5030000000	132
32.5330000000	128
32.5630000000	140
32.5930000000	107
32.6230000000	129
32.6530000000	124
32.6830000000	135
32.7130000000	158
32.7430000000	144
32.7730000000	133
32.8030000000	160
32.8330000000	153
32.8630000000	155
32.8930000000	206
32.9230000000	227
32.9530000000	287
32.9830000000	479
33.0130000000	806
33.0430000000	1277
33.0730000000	1973
33.1030000000	3033
33.1330000000	4878
33.1630000000	6917
33.1930000000	8236
33.2230000000	7472
33.2530000000	5293
33.2830000000	3275
33.3130000000	1985
33.3430000000	1214
33.3730000000	711
33.4030000000	424
33.4330000000	314
33.4630000000	254
33.4930000000	203
33.5230000000	198
33.5530000000	192
33.5830000000	168
33.6130000000	143
33.6430000000	152
33.6730000000	141
33.7030000000	139
33.7330000000	146
33.7630000000	144
33.7930000000	130
33.8230000000	125
33.8530000000	109
33.8830000000	115
33.9130000000	114
33.9430000000	102
33.9730000000	129
34.0030000000	140
34.0330000000	138
34.0630000000	122
34.0930000000	120
34.1230000000	119
34.1530000000	137
34.1830000000	113
34.2130000000	117
34.2430000000	134
34.2730000000	121
34.3030000000	138
34.3330000000	128
34.3630000000	116
34.3930000000	116
34.4230000000	97
34.4530000000	117
34.4830000000	102
34.5130000000	99
34.5430000000	107
34.5730000000	104
34.6030000000	126
34.6330000000	109
34.6630000000	107
34.6930000000	103
34.7230000000	107
34.7530000000	129
34.7830000000	113
34.8130000000	124
34.8430000000	126
34.8730000000	121
34.9030000000	95
34.9330000000	96
34.9630000000	108
34.9930000000	114
35.0230000000	110
35.0530000000	110
35.0830000000	119
35.1130000000	108
35.1430000000	107
35.1730000000	102
35.2030000000	111
35.2330000000	120
35.2630000000	115
35.2930000000	119
35.3230000000	121
35.3530000000	122
35.3830000000	106
35.4130000000	104
35.4430000000	104
35.4730000000	99
35.5030000000	116
35.5330000000	127
35.5630000000	113
35.5930000000	101
35.6230000000	103
35.6530000000	87
35.6830000000	109
35.7130000000	119
35.7430000000	123
35.7730000000	101
35.8030000000	116
35.8330000000	94
35.8630000000	89
35.8930000000	104
35.9230000000	120
35.9530000000	106
35.9830000000	114
36.0130000000	126
36.0430000000	103
36.0730000000	98
36.1030000000	111
36.1330000000	110
36.1630000000	102
36.1930000000	126
36.2230000000	128
36.2530000000	160
36.2830000000	192
36.3130000000	214
36.3430000000	235
36.3730000000	247
36.4030000000	241
36.4330000000	199
36.4630000000	189
36.4930000000	153
36.5230000000	140
36.5530000000	101
36.5830000000	111
36.6130000000	98
36.6430000000	101
36.6730000000	100
36.7030000000	99
36.7330000000	96
36.7630000000	109
36.7930000000	111
36.8230000000	93
36.8530000000	96
36.8830000000	106
36.9130000000	111
36.9430000000	90
36.9730000000	91
37.0030000000	107
37.0330000000	100
37.0630000000	91
37.0930000000	92
37.1230000000	83
37.1530000000	97
37.1830000000	95
37.2130000000	90
37.2430000000	96
37.2730000000	115
37.3030000000	93
37.3330000000	84
37.3630000000	106
37.3930000000	107
37.4230000000	103
37.4530000000	88
37.4830000000	107
37.5130000000	109
37.5430000000	86
37.5730000000	84
37.6030000000	86
37.6330000000	106
37.6630000000	92
37.6930000000	90
37.7230000000	95
37.7530000000	96
37.7830000000	89
37.8130000000	101
37.8430000000	105
37.8730000000	98
37.9030000000	104
37.9330000000	90
37.9630000000	103
37.9930000000	104
38.0230000000	92
38.0530000000	98
38.0830000000	99
38.1130000000	92
38.1430000000	85
38.1730000000	92
38.2030000000	97
38.2330000000	88
38.2630000000	86
38.2930000000	88
38.3230000000	91
38.3530000000	108
38.3830000000	98
38.4130000000	93
38.4430000000	94
38.4730000000	77
38.5030000000	87
38.5330000000	94
38.5630000000	99
38.5930000000	101
38.6230000000	102
38.6530000000	90
38.6830000000	96
38.7130000000	87
38.7430000000	83
38.7730000000	110
38.8030000000	110
38.8330000000	89
38.8630000000	96
38.8930000000	95
38.9230000000	90
38.9530000000	105
38.9830000000	112
39.0130000000	109
39.0430000000	89
39.0730000000	92
39.1030000000	87
39.1330000000	89
39.1630000000	92
39.1930000000	91
39.2230000000	109
39.2530000000	86
39.2830000000	97
39.3130000000	93
39.3430000000	90
39.3730000000	102
39.4030000000	98
39.4330000000	96
39.4630000000	85
39.4930000000	112
39.5230000000	98
39.5530000000	90
39.5830000000	88
39.6130000000	101
39.6430000000	99
39.6730000000	84
39.7030000000	94
39.7330000000	81
39.7630000000	99
39.7930000000	90
39.8230000000	109
39.8530000000	86
39.8830000000	90
39.9130000000	88
39.9430000000	98
39.9730000000	96
40.0030000000	97
40.0330000000	102
40.0630000000	102
40.0930000000	95
40.1230000000	110
40.1530000000	89
40.1830000000	105
40.2130000000	86
40.2430000000	83
40.2730000000	95
40.3030000000	86
40.3330000000	105
40.3630000000	95
40.3930000000	110
40.4230000000	97
40.4530000000	83
40.4830000000	89
40.5130000000	103
40.5430000000	91
40.5730000000	104
40.6030000000	113
40.6330000000	101
40.6630000000	103
40.6930000000	130
40.7230000000	140
40.7530000000	164
40.7830000000	232
40.8130000000	295
40.8430000000	360
40.8730000000	487
40.9030000000	481
40.9330000000	439
40.9630000000	327
40.9930000000	230
41.0230000000	187
41.0530000000	136
41.0830000000	114
41.1130000000	121
41.1430000000	101
41.1730000000	96
41.2030000000	112
41.2330000000	92
41.2630000000	102
41.2930000000	97
41.3230000000	104
41.3530000000	83
41.3830000000	96
41.4130000000	121
41.4430000000	94
41.4730000000	95
41.5030000000	101
41.5330000000	101
41.5630000000	101
41.5930000000	71
41.6230000000	87
41.6530000000	92
41.6830000000	95
41.7130000000	88
41.7430000000	99
41.7730000000	91
41.8030000000	104
41.8330000000	92
41.8630000000	101
41.8930000000	98
41.9230000000	89
41.9530000000	90
41.9830000000	95
42.0130000000	93
42.0430000000	83
42.0730000000	95
42.1030000000	93
42.1330000000	107
42.1630000000	136
42.1930000000	139
42.2230000000	176
42.2530000000	177
42.2830000000	189
42.3130000000	214
42.3430000000	219
42.3730000000	203
42.4030000000	218
42.4330000000	227
42.4630000000	233
42.4930000000	236
42.5230000000	226
42.5530000000	210
42.5830000000	174
42.6130000000	152
42.6430000000	129
42.6730000000	109
42.7030000000	100
42.7330000000	96
42.7630000000	88
42.7930000000	93
42.8230000000	112
42.8530000000	81
42.8830000000	89
42.9130000000	89
42.9430000000	101
42.9730000000	100
43.0030000000	86
43.0330000000	111
43.0630000000	99
43.0930000000	92
43.1230000000	92
43.1530000000	76
43.1830000000	86
43.2130000000	84
43.2430000000	85
43.2730000000	110
43.3030000000	116
43.3330000000	86
43.3630000000	96
43.3930000000	98
43.4230000000	86
43.4530000000	84
43.4830000000	91
43.5130000000	80
43.5430000000	88
43.5730000000	111
43.6030000000	97
43.6330000000	100
43.6630000000	108
43.6930000000	83
43.7230000000	92
43.7530000000	112
43.7830000000	102
43.8130000000	92
43.8430000000	103
43.8730000000	90
43.9030000000	90
43.9330000000	99
43.9630000000	77
43.9930000000	82
44.0230000000	87
44.0530000000	86
44.0830000000	93
44.1130000000	84
44.1430000000	79
44.1730000000	92
44.2030000000	98
44.2330000000	109
44.2630000000	82
44.2930000000	87
44.3230000000	88
44.3530000000	81
44.3830000000	85
44.4130000000	76
44.4430000000	96
44.4730000000	88
44.5030000000	106
44.5330000000	87
44.5630000000	88
44.5930000000	96
44.6230000000	105
44.6530000000	91
44.6830000000	101
44.7130000000	85
44.7430000000	92
44.7730000000	87
44.8030000000	87
44.8330000000	92
44.8630000000	88
44.8930000000	77
44.9230000000	87
44.9530000000	93
44.9830000000	102
45.0130000000	82
45.0430000000	87
45.0730000000	90
45.1030000000	96
45.1330000000	85
45.1630000000	73
45.1930000000	69
45.2230000000	81
45.2530000000	85
45.2830000000	74
45.3130000000	78
45.3430000000	92
45.3730000000	68
45.4030000000	83
45.4330000000	82
45.4630000000	78
45.4930000000	75
45.5230000000	73
45.5530000000	70
45.5830000000	85
45.6130000000	96
45.6430000000	96
45.6730000000	87
45.7030000000	83
45.7330000000	86
45.7630000000	80
45.7930000000	74
45.8230000000	79
45.8530000000	88
45.8830000000	76
45.9130000000	89
45.9430000000	86
45.9730000000	84
46.0030000000	70
46.0330000000	72
46.0630000000	87
46.0930000000	77
46.1230000000	82
46.1530000000	96
46.1830000000	91
46.2130000000	86
46.2430000000	90
46.2730000000	123
46.3030000000	115
46.3330000000	100
46.3630000000	109
46.3930000000	130
46.4230000000	104
46.4530000000	102
46.4830000000	93
46.5130000000	86
46.5430000000	88
46.5730000000	72
46.6030000000	82
46.6330000000	72
46.6630000000	70
46.6930000000	79
46.7230000000	93
46.7530000000	93
46.7830000000	83
46.8130000000	83
46.8430000000	85
46.8730000000	84
46.9030000000	84
46.9330000000	79
46.9630000000	66
46.9930000000	83
47.0230000000	86
47.0530000000	60
47.0830000000	65
47.1130000000	86
47.1430000000	83
47.1730000000	65
47.2030000000	75
47.2330000000	73
47.2630000000	72
47.2930000000	83
47.3230000000	78
47.3530000000	79
47.3830000000	73
47.4130000000	71
47.4430000000	85
47.4730000000	74
47.5030000000	82
47.5330000000	67
47.5630000000	68
47.5930000000	76
47.6230000000	66
47.6530000000	83
47.6830000000	83
47.7130000000	86
47.7430000000	75
47.7730000000	81
47.8030000000	75
47.8330000000	73
47.8630000000	65
47.8930000000	59
47.9230000000	71
47.9530000000	73
47.9830000000	76
48.0130000000	64
48.0430000000	62
48.0730000000	72
48.1030000000	71
48.1330000000	87
48.1630000000	62
48.1930000000	83
48.2230000000	70
48.2530000000	75
48.2830000000	69
48.3130000000	66
48.3430000000	91
48.3730000000	71
48.4030000000	63
48.4330000000	79
48.4630000000	73
48.4930000000	72
48.5230000000	61
48.5530000000	70
48.5830000000	69
48.6130000000	55
48.6430000000	67
48.6730000000	69
48.7030000000	51
48.7330000000	66
48.7630000000	64
48.7930000000	54
48.8230000000	56
48.8530000000	63
48.8830000000	81
48.9130000000	75
48.9430000000	60
48.9730000000	53
49.0030000000	67
49.0330000000	91
49.0630000000	70
49.0930000000	64
49.1230000000	77
49.1530000000	78
49.1830000000	77
49.2130000000	76
49.2430000000	72
49.2730000000	82
49.3030000000	77
49.3330000000	77
49.3630000000	75
49.3930000000	61
49.4230000000	66
49.4530000000	64
49.4830000000	64
49.5130000000	66
49.5430000000	59
49.5730000000	51
49.6030000000	66
49.6330000000	83
49.6630000000	68
49.6930000000	82
49.7230000000	77
49.7530000000	66
49.7830000000	51
49.8130000000	66
49.8430000000	64
49.8730000000	79
49.9030000000	68
49.9330000000	66
49.9630000000	68
49.9930000000	78
50.0230000000	65
50.0530000000	74
50.0830000000	66
50.1130000000	75
50.1430000000	87
50.1730000000	85
50.2030000000	97
50.2330000000	108
50.2630000000	104
50.2930000000	81
50.3230000000	76
50.3530000000	85
50.3830000000	52
50.4130000000	52
50.4430000000	53
50.4730000000	72
50.5030000000	66
50.5330000000	60
50.5630000000	55
50.5930000000	80
50.6230000000	65
50.6530000000	52
50.6830000000	57
50.7130000000	77
50.7430000000	73
50.7730000000	65
50.8030000000	65
50.8330000000	72
50.8630000000	70
50.8930000000	59
50.9230000000	56
50.9530000000	55
50.9830000000	57
51.0130000000	58
51.0430000000	62
51.0730000000	62
51.1030000000	64
51.1330000000	71
51.1630000000	58
51.1930000000	57
51.2230000000	64
51.2530000000	64
51.2830000000	62
51.3130000000	65
51.3430000000	58
51.3730000000	59
51.4030000000	65
51.4330000000	63
51.4630000000	62
51.4930000000	65
51.5230000000	55
51.5530000000	52
51.5830000000	43
51.6130000000	62
51.6430000000	68
51.6730000000	65
51.7030000000	67
51.7330000000	61
51.7630000000	68
51.7930000000	64
51.8230000000	49
51.8530000000	59
51.8830000000	62
51.9130000000	57
51.9430000000	56
51.9730000000	56
52.0030000000	63
52.0330000000	58
52.0630000000	68
52.0930000000	66
52.1230000000	53
52.1530000000	62
52.1830000000	57
52.2130000000	58
52.2430000000	68
52.2730000000	67
52.3030000000	72
52.3330000000	45
52.3630000000	77
52.3930000000	74
52.4230000000	65
52.4530000000	75
52.4830000000	75
52.5130000000	82
52.5430000000	74
52.5730000000	65
52.6030000000	47
52.6330000000	62
52.6630000000	58
52.6930000000	61
52.7230000000	66
52.7530000000	54
52.7830000000	56
52.8130000000	55
52.8430000000	65
52.8730000000	63
52.9030000000	74
52.9330000000	44
52.9630000000	61
52.9930000000	65
53.0230000000	59
53.0530000000	56
53.0830000000	63
53.1130000000	68
53.1430000000	65
53.1730000000	69
53.2030000000	61
53.2330000000	72
53.2630000000	60
53.2930000000	69
53.3230000000	74
53.3530000000	45
53.3830000000	65
53.4130000000	69
53.4430000000	56
53.4730000000	55
53.5030000000	68
53.5330000000	67
53.5630000000	55
53.5930000000	53
53.6230000000	48
53.6530000000	48
53.6830000000	48
53.7130000000	54
53.7430000000	63
53.7730000000	65
53.8030000000	69
53.8330000000	61
53.8630000000	51
53.8930000000	52
53.9230000000	63
53.9530000000	50
53.9830000000	57
54.0130000000	60
54.0430000000	51
54.0730000000	61
54.1030000000	54
54.1330000000	65
54.1630000000	62
54.1930000000	51
54.2230000000	49
54.2530000000	60
54.2830000000	60
54.3130000000	57
54.3430000000	74
54.3730000000	51
54.4030000000	50
54.4330000000	47
54.4630000000	52
54.4930000000	45
54.5230000000	55
54.5530000000	53
54.5830000000	54
54.6130000000	62
54.6430000000	40
54.6730000000	54
54.7030000000	53
54.7330000000	62
54.7630000000	64
54.7930000000	60
54.8230000000	60
54.8530000000	38
54.8830000000	48
54.9130000000	45
54.9430000000	58
54.9730000000	64
55.0030000000	56
55.0330000000	54
55.0630000000	48
55.0930000000	63
55.1230000000	57
55.1530000000	59
55.1830000000	49
55.2130000000	59
55.2430000000	63
55.2730000000	44
55.3030000000	66
55.3330000000	60
55.3630000000	46
55.3930000000	55
55.4230000000	46
55.4530000000	57
55.4830000000	65
55.5130000000	53
55.5430000000	58
55.5730000000	49
55.6030000000	53
55.6330000000	56
55.6630000000	49
55.6930000000	55
55.7230000000	55
55.7530000000	59
55.7830000000	48
55.8130000000	57
55.8430000000	51
55.8730000000	58
55.9030000000	63
55.9330000000	63
55.9630000000	63
55.9930000000	59
56.0230000000	62
56.0530000000	63
56.0830000000	53
56.1130000000	64
56.1430000000	55
56.1730000000	52
56.2030000000	57
56.2330000000	69
56.2630000000	59
56.2930000000	61
56.3230000000	49
56.3530000000	59
56.3830000000	67
56.4130000000	59
56.4430000000	46
56.4730000000	53
56.5030000000	49
56.5330000000	53
56.5630000000	62
56.5930000000	51
56.6230000000	52
56.6530000000	49
56.6830000000	48
56.7130000000	54
56.7430000000	53
56.7730000000	66
56.8030000000	61
56.8330000000	53
56.8630000000	49
56.8930000000	52
56.9230000000	54
56.9530000000	54
56.9830000000	57
57.0130000000	74
57.0430000000	73
57.0730000000	67
57.1030000000	59
57.1330000000	63
57.1630000000	63
57.1930000000	66
57.2230000000	64
57.2530000000	61
57.2830000000	73
57.3130000000	60
57.3430000000	50
57.3730000000	58
57.4030000000	63
57.4330000000	50
57.4630000000	57
57.4930000000	55
57.5230000000	53
57.5530000000	46
57.5830000000	52
57.6130000000	40
57.6430000000	71
57.6730000000	42
57.7030000000	53
57.7330000000	46
57.7630000000	39
57.7930000000	53
57.8230000000	59
57.8530000000	45
57.8830000000	39
57.9130000000	65
57.9430000000	51
57.9730000000	55
58.0030000000	50
58.0330000000	64
58.0630000000	50
58.0930000000	50
58.1230000000	57
58.1530000000	62
58.1830000000	54
58.2130000000	52
58.2430000000	49
58.2730000000	44
58.3030000000	46
58.3330000000	53
58.3630000000	35
58.3930000000	34
58.4230000000	51
58.4530000000	57
58.4830000000	57
58.5130000000	57
58.5430000000	55
58.5730000000	42
58.6030000000	60
58.6330000000	38
58.6630000000	52
58.6930000000	49
58.7230000000	55
58.7530000000	54
58.7830000000	47
58.8130000000	49
58.8430000000	49
58.8730000000	60
58.9030000000	49
58.9330000000	59
58.9630000000	53
58.9930000000	50
59.0230000000	65
59.0530000000	65
59.0830000000	58
59.1130000000	61
59.1430000000	52
59.1730000000	52
59.2030000000	44
59.2330000000	43
59.2630000000	43
59.2930000000	40
59.3230000000	40
59.3530000000	58
59.3830000000	50
59.4130000000	48
59.4430000000	52
59.4730000000	55
59.5030000000	49
59.5330000000	37
59.5630000000	60
59.5930000000	66
59.6230000000	54
59.6530000000	59
59.6830000000	65
59.7130000000	52
59.7430000000	37
59.7730000000	58
59.8030000000	40
59.8330000000	40
59.8630000000	39
59.8930000000	47
59.9230000000	50
59.9530000000	55
59.9830000000	50
60.0130000000	54
60.0430000000	44
60.0730000000	52
60.1030000000	46
60.1330000000	52
60.1630000000	57
60.1930000000	48
60.2230000000	63
60.2530000000	74
60.2830000000	48
60.3130000000	54
60.3430000000	62
60.3730000000	66
60.4030000000	57
60.4330000000	62
60.4630000000	57
60.4930000000	66
60.5230000000	56
60.5530000000	52
60.5830000000	52
60.6130000000	54
60.6430000000	50
60.6730000000	43
60.7030000000	50
60.7330000000	59
60.7630000000	46
60.7930000000	55
60.8230000000	50
60.8530000000	50
60.8830000000	55
60.9130000000	50
60.9430000000	38
60.9730000000	56
61.0030000000	46
61.0330000000	43
61.0630000000	45
61.0930000000	53
61.1230000000	43
61.1530000000	38
61.1830000000	58
61.2130000000	52
61.2430000000	49
61.2730000000	57
61.3030000000	57
61.3330000000	50
61.3630000000	53
61.3930000000	40
61.4230000000	58
61.4530000000	41
61.4830000000	51
61.5130000000	55
61.5430000000	59
61.5730000000	54
61.6030000000	39
61.6330000000	46
61.6630000000	46
61.6930000000	49
61.7230000000	37
61.7530000000	42
61.7830000000	50
61.8130000000	47
61.8430000000	45
61.8730000000	52
61.9030000000	45
61.9330000000	43
61.9630000000	57
61.9930000000	49
62.0230000000	44
62.0530000000	36
62.0830000000	39
62.1130000000	64
62.1430000000	46
62.1730000000	43
62.2030000000	52
62.2330000000	47
62.2630000000	48
62.2930000000	53
62.3230000000	55
62.3530000000	51
62.3830000000	45
62.4130000000	53
62.4430000000	52
62.4730000000	56
62.5030000000	50
62.5330000000	46
62.5630000000	37
62.5930000000	54
62.6230000000	40
62.6530000000	51
62.6830000000	45
62.7130000000	46
62.7430000000	42
62.7730000000	43
62.8030000000	51
62.8330000000	47
62.8630000000	53
62.8930000000	46
62.9230000000	54
62.9530000000	49
62.9830000000	58
63.0130000000	54
63.0430000000	51
63.0730000000	55
63.1030000000	48
63.1330000000	44
63.1630000000	45
63.1930000000	55
63.2230000000	66
63.2530000000	59
63.2830000000	53
63.3130000000	76
63.3430000000	84
63.3730000000	79
63.4030000000	87
63.4330000000	85
63.4630000000	95
63.4930000000	77
63.5230000000	88
63.5530000000	80
63.5830000000	89
63.6130000000	68
63.6430000000	60
63.6730000000	65
63.7030000000	48
63.7330000000	57
63.7630000000	60
63.7930000000	52
63.8230000000	54
63.8530000000	49
63.8830000000	43
63.9130000000	45
63.9430000000	50
63.9730000000	53
64.0030000000	45
64.0330000000	62
64.0630000000	50
64.0930000000	48
64.1230000000	40
64.1530000000	48
64.1830000000	57
64.2130000000	49
64.2430000000	48
64.2730000000	42
64.3030000000	41
64.3330000000	42
64.3630000000	50
64.3930000000	47
64.4230000000	56
64.4530000000	48
64.4830000000	50
64.5130000000	48
64.5430000000	56
64.5730000000	51
64.6030000000	45
64.6330000000	46
64.6630000000	50
64.6930000000	47
64.7230000000	53
64.7530000000	53
64.7830000000	51
64.8130000000	49
64.8430000000	46
64.8730000000	48
64.9030000000	57
64.9330000000	54
64.9630000000	50
64.9930000000	53
65.0230000000	55
65.0530000000	47
65.0830000000	36
65.1130000000	46
65.1430000000	39
65.1730000000	50
65.2030000000	43
65.2330000000	53
65.2630000000	42
65.2930000000	48
65.3230000000	41
65.3530000000	49
65.3830000000	47
65.4130000000	55
65.4430000000	51
65.4730000000	54
65.5030000000	38
65.5330000000	39
65.5630000000	48
65.5930000000	53
65.6230000000	55
65.6530000000	36
65.6830000000	49
65.7130000000	60
65.7430000000	50
65.7730000000	51
65.8030000000	49
65.8330000000	50
65.8630000000	46
65.8930000000	45
65.9230000000	42
65.9530000000	40
65.9830000000	53
66.0130000000	47
66.0430000000	36
66.0730000000	56
66.1030000000	38
66.1330000000	50
66.1630000000	51
66.1930000000	50
66.2230000000	38
66.2530000000	41
66.2830000000	54
66.3130000000	50
66.3430000000	47
66.3730000000	47
66.4030000000	42
66.4330000000	60
66.4630000000	56
66.4930000000	51
66.5230000000	52
66.5530000000	51
66.5830000000	46
66.6130000000	41
66.6430000000	43
66.6730000000	46
66.7030000000	52
66.7330000000	41
66.7630000000	52
66.7930000000	45
66.8230000000	42
66.8530000000	47
66.8830000000	41
66.9130000000	35
66.9430000000	55
66.9730000000	44
67.0030000000	54
67.0330000000	47
67.0630000000	56
67.0930000000	45
67.1230000000	43
67.1530000000	44
67.1830000000	45
67.2130000000	47
67.2430000000	43
67.2730000000	45
67.3030000000	56
67.3330000000	42
67.3630000000	45
67.3930000000	39
67.4230000000	56
67.4530000000	45
67.4830000000	35
67.5130000000	48
67.5430000000	49
67.5730000000	43
67.6030000000	52
67.6330000000	46
67.6630000000	51
67.6930000000	44
67.7230000000	42
67.7530000000	47
67.7830000000	47
67.8130000000	42
67.8430000000	49
67.8730000000	53
67.9030000000	41
67.9330000000	54
67.9630000000	43
67.9930000000	46
68.0230000000	49
68.0530000000	45
68.0830000000	51
68.1130000000	42
68.1430000000	52
68.1730000000	45
68.2030000000	44
68.2330000000	45
68.2630000000	57
68.2930000000	58
68.3230000000	49
68.3530000000	63
68.3830000000	47
68.4130000000	53
68.4430000000	47
68.4730000000	35
68.5030000000	58
68.5330000000	43
68.5630000000	49
68.5930000000	44
68.6230000000	59
68.6530000000	44
68.6830000000	43
68.7130000000	61
68.7430000000	47
68.7730000000	53
68.8030000000	50
68.8330000000	50
68.8630000000	42
68.8930000000	51
68.9230000000	46
68.9530000000	49
68.9830000000	38
69.0130000000	55
69.0430000000	45
69.0730000000	45
69.1030000000	42
69.1330000000	50
69.1630000000	49
69.1930000000	47
69.2230000000	56
69.2530000000	58
69.2830000000	42
69.3130000000	43
69.3430000000	49
69.3730000000	35
69.4030000000	44
69.4330000000	46
69.4630000000	48
69.4930000000	43
69.5230000000	48
69.5530000000	52
69.5830000000	44
69.6130000000	47
69.6430000000	51
69.6730000000	47
69.7030000000	50
69.7330000000	57
69.7630000000	43
69.7930000000	39
69.8230000000	43
69.8530000000	49
69.8830000000	45
69.9130000000	51
69.9430000000	47
69.9730000000	44
70.0030000000	45
70.0330000000	54
70.0630000000	43
70.0930000000	43
70.1230000000	45
70.1530000000	52
70.1830000000	48
70.2130000000	41
70.2430000000	40
70.2730000000	37
70.3030000000	35
70.3330000000	41
70.3630000000	34
70.3930000000	49
70.4230000000	39
70.4530000000	43
70.4830000000	38
70.5130000000	50
70.5430000000	45
70.5730000000	29
70.6030000000	42
70.6330000000	36
70.6630000000	45
70.6930000000	42
70.7230000000	43
70.7530000000	43
70.7830000000	47
70.8130000000	43
70.8430000000	48
70.8730000000	43
70.9030000000	41
70.9330000000	44
70.9630000000	48
70.9930000000	37
71.0230000000	42
71.0530000000	52
71.0830000000	44
71.1130000000	39
71.1430000000	53
71.1730000000	47
71.2030000000	41
71.2330000000	45
71.2630000000	45
71.2930000000	40
71.3230000000	37
71.3530000000	42
71.3830000000	39
71.4130000000	42
71.4430000000	40
71.4730000000	49
71.5030000000	43
71.5330000000	39
71.5630000000	59
71.5930000000	46
71.6230000000	48
71.6530000000	41
71.6830000000	44
71.7130000000	48
71.7430000000	30
71.7730000000	47
71.8030000000	42
71.8330000000	47
71.8630000000	48
71.8930000000	48
71.9230000000	57
71.9530000000	47
71.9830000000	42
72.0130000000	41
72.0430000000	41
72.0730000000	39
72.1030000000	41
72.1330000000	56
72.1630000000	46
72.1930000000	29
72.2230000000	40
72.2530000000	40
72.2830000000	49
72.3130000000	40
72.3430000000	52
72.3730000000	43
72.4030000000	44
72.4330000000	57
72.4630000000	83
72.4930000000	62
72.5230000000	56
72.5530000000	71
72.5830000000	62
72.6130000000	54
72.6430000000	67
72.6730000000	46
72.7030000000	64
72.7330000000	63
72.7630000000	49
72.7930000000	52
72.8230000000	55
72.8530000000	55
72.8830000000	41
72.9130000000	38
72.9430000000	60
72.9730000000	41
73.0030000000	44
73.0330000000	39
73.0630000000	41
73.0930000000	37
73.1230000000	47
73.1530000000	46
73.1830000000	62
73.2130000000	45
73.2430000000	53
73.2730000000	43
73.3030000000	40
73.3330000000	39
73.3630000000	48
73.3930000000	32
73.4230000000	40
73.4530000000	40
73.4830000000	38
73.5130000000	53
73.5430000000	50
73.5730000000	42
73.6030000000	42
73.6330000000	45
73.6630000000	39
73.6930000000	37
73.7230000000	40
73.7530000000	37
73.7830000000	48
73.8130000000	44
73.8430000000	53
73.8730000000	39
73.9030000000	47
73.9330000000	40
73.9630000000	43
73.9930000000	53
74.0230000000	41
74.0530000000	58
74.0830000000	42
74.1130000000	63
74.1430000000	44
74.1730000000	46
74.2030000000	44
74.2330000000	51
74.2630000000	46
74.2930000000	57
74.3230000000	58
74.3530000000	62
74.3830000000	55
74.4130000000	41
74.4430000000	42
74.4730000000	55
74.5030000000	38
74.5330000000	54
74.5630000000	37
74.5930000000	43
74.6230000000	52
74.6530000000	55
74.6830000000	66
74.7130000000	55
74.7430000000	38
74.7730000000	44
74.8030000000	40
74.8330000000	37
74.8630000000	44
74.8930000000	47
74.9230000000	50
74.9530000000	41
74.9830000000	45
75.0130000000	33
75.0430000000	36
75.0730000000	38
75.1030000000	57
75.1330000000	59
75.1630000000	60
75.1930000000	59
75.2230000000	51
75.2530000000	54
75.2830000000	65
75.3130000000	77
75.3430000000	73
75.3730000000	106
75.4030000000	135
75.4330000000	152
75.4630000000	218
75.4930000000	265
75.5230000000	255
75.5530000000	308
75.5830000000	266
75.6130000000	241
75.6430000000	231
75.6730000000	201
75.7030000000	228
75.7330000000	227
75.7630000000	169
75.7930000000	152
75.8230000000	137
75.8530000000	85
75.8830000000	67
75.9130000000	74
75.9430000000	49
75.9730000000	42
76.0030000000	55
76.0330000000	49
76.0630000000	40
76.0930000000	46
76.1230000000	49
76.1530000000	44
76.1830000000	59
76.2130000000	40
76.2430000000	48
76.2730000000	46
76.3030000000	48
76.3330000000	47
76.3630000000	45
76.3930000000	52
76.4230000000	47
76.4530000000	45
76.4830000000	45
76.5130000000	51
76.5430000000	52
76.5730000000	47
76.6030000000	42
76.6330000000	52
76.6630000000	44
76.6930000000	45
76.7230000000	38
76.7530000000	43
76.7830000000	50
76.8130000000	48
76.8430000000	47
76.8730000000	40
76.9030000000	45
76.9330000000	41
76.9630000000	43
76.9930000000	50
77.0230000000	36
77.0530000000	49
77.0830000000	41
77.1130000000	42
77.1430000000	51
77.1730000000	48
77.2030000000	43
77.2330000000	46
77.2630000000	44
77.2930000000	45
77.3230000000	43
77.3530000000	37
77.3830000000	31
77.4130000000	51
77.4430000000	44
77.4730000000	45
77.5030000000	51
77.5330000000	38
77.5630000000	49
77.5930000000	57
77.6230000000	42
77.6530000000	43
77.6830000000	41
77.7130000000	38
77.7430000000	45
77.7730000000	39
77.8030000000	48
77.8330000000	44
77.8630000000	46
77.8930000000	46
77.9230000000	49
77.9530000000	42
77.9830000000	27
78.0130000000	46
78.0430000000	38
78.0730000000	44
78.1030000000	37
78.1330000000	30
78.1630000000	44
78.1930000000	32
78.2230000000	40
78.2530000000	30
78.2830000000	49
78.3130000000	42
78.3430000000	49
78.3730000000	48
78.4030000000	51
78.4330000000	40
78.4630000000	50
78.4930000000	51
78.5230000000	37
78.5530000000	37
78.5830000000	33
78.6130000000	35
78.6430000000	31
78.6730000000	42
78.7030000000	49
78.7330000000	31
78.7630000000	40
78.7930000000	39
78.8230000000	40
78.8530000000	45
78.8830000000	45
78.9130000000	44
78.9430000000	45
78.9730000000	43
79.0030000000	35
79.0330000000	47
79.0630000000	49
79.0930000000	42
79.1230000000	43
79.1530000000	50
79.1830000000	36
79.2130000000	32
79.2430000000	45
79.2730000000	49
79.3030000000	44
79.3330000000	37
79.3630000000	33
79.3930000000	44
79.4230000000	33
79.4530000000	45
79.4830000000	47
79.5130000000	38
79.5430000000	39
79.5730000000	41
79.6030000000	34
79.6330000000	40
79.6630000000	38
79.6930000000	34
79.7230000000	39
79.7530000000	40
79.7830000000	47
79.8130000000	47
79.8430000000	36
79.8730000000	43
79.9030000000	57
79.9330000000	37
79.9630000000	44
79.9930000000	33
80.0230000000	41
80.0530000000	40
80.0830000000	38
80.1130000000	45
80.1430000000	24
80.1730000000	39
80.2030000000	38
80.2330000000	39
80.2630000000	43
80.2930000000	46
80.3230000000	44
80.3530000000	40
80.3830000000	47
80.4130000000	47
80.4430000000	43
80.4730000000	47
80.5030000000	44
80.5330000000	46
80.5630000000	47
80.5930000000	38
80.6230000000	29
80.6530000000	31
80.6830000000	37
80.7130000000	44
80.7430000000	41
80.7730000000	43
80.8030000000	35
80.8330000000	34
80.8630000000	41
80.8930000000	41
80.9230000000	34
80.9530000000	42
80.9830000000	33
81.0130000000	43
81.0430000000	43
81.0730000000	43
81.1030000000	58
81.1330000000	35
81.1630000000	49
81.1930000000	32
81.2230000000	35
81.2530000000	38
81.2830000000	39
81.3130000000	35
81.3430000000	50
81.3730000000	29
81.4030000000	33
81.4330000000	32
81.4630000000	44
81.4930000000	39
81.5230000000	52
81.5530000000	44
81.5830000000	42
81.6130000000	39
81.6430000000	38
81.6730000000	34
81.7030000000	45
81.7330000000	41
81.7630000000	48
81.7930000000	25
81.8230000000	42
81.8530000000	40
81.8830000000	46
81.9130000000	43
81.9430000000	47
81.9730000000	44
82.0030000000	37
82.0330000000	58
82.0630000000	37
82.0930000000	38
82.1230000000	37
82.1530000000	38
82.1830000000	34
82.2130000000	57
82.2430000000	44
82.2730000000	43
82.3030000000	44
82.3330000000	38
82.3630000000	32
82.3930000000	28
82.4230000000	33
82.4530000000	44
82.4830000000	50
82.5130000000	39
82.5430000000	42
82.5730000000	43
82.6030000000	43
82.6330000000	37
82.6630000000	39
82.6930000000	44
82.7230000000	43
82.7530000000	36
82.7830000000	40
82.8130000000	42
82.8430000000	40
82.8730000000	44
82.9030000000	30
82.9330000000	27
82.9630000000	45
82.9930000000	40
83.0230000000	39
83.0530000000	33
83.0830000000	35
83.1130000000	40
83.1430000000	40
83.1730000000	43
83.2030000000	40
83.2330000000	50
83.2630000000	33
83.2930000000	35
83.3230000000	38
83.3530000000	44
83.3830000000	34
83.4130000000	39
83.4430000000	38
83.4730000000	42
83.5030000000	35
83.5330000000	41
83.5630000000	31
83.5930000000	47
83.6230000000	37
83.6530000000	40
83.6830000000	50
83.7130000000	44
83.7430000000	52
83.7730000000	47
83.8030000000	51
83.8330000000	36
83.8630000000	40
83.8930000000	49
83.9230000000	41
83.9530000000	24
83.9830000000	40
84.0130000000	32
84.0430000000	31
84.0730000000	40
84.1030000000	45
84.1330000000	39
84.1630000000	37
84.1930000000	44
84.2230000000	33
84.2530000000	40
84.2830000000	36
84.3130000000	31
84.3430000000	43
84.3730000000	42
84.4030000000	50
84.4330000000	38
84.4630000000	42
84.4930000000	42
84.5230000000	36
84.5530000000	55
84.5830000000	34
84.6130000000	52
84.6430000000	38
84.6730000000	33
84.7030000000	56
84.7330000000	35
84.7630000000	40
84.7930000000	51
84.8230000000	44
84.8530000000	38
84.8830000000	37
84.9130000000	46
84.9430000000	43
84.9730000000	38
85.0030000000	28
85.0330000000	41
85.0630000000	38
85.0930000000	47
85.1230000000	40
85.1530000000	42
85.1830000000	35
85.2130000000	35
85.2430000000	31
85.2730000000	39
85.3030000000	23
85.3330000000	33
85.3630000000	31
85.3930000000	40
85.4230000000	38
85.4530000000	30
85.4830000000	48
85.5130000000	39
85.5430000000	36
85.5730000000	34
85.6030000000	33
85.6330000000	35
85.6630000000	43
85.6930000000	38
85.7230000000	47
85.7530000000	33
85.7830000000	40
85.8130000000	35
85.8430000000	48
85.8730000000	48
85.9030000000	32
85.9330000000	40
85.9630000000	29
85.9930000000	29
86.0230000000	43
86.0530000000	45
86.0830000000	42
86.1130000000	40
86.1430000000	37
86.1730000000	45
86.2030000000	36
86.2330000000	41
86.2630000000	42
86.2930000000	36
86.3230000000	44
86.3530000000	41
86.3830000000	40
86.4130000000	44
86.4430000000	45
86.4730000000	36
86.5030000000	38
86.5330000000	46
86.5630000000	37
86.5930000000	42
86.6230000000	49
86.6530000000	50
86.6830000000	45
86.7130000000	33
86.7430000000	39
86.7730000000	51
86.8030000000	48
86.8330000000	35
86.8630000000	27
86.8930000000	30
86.9230000000	39
86.9530000000	38
86.9830000000	40
87.0130000000	43
87.0430000000	38
87.0730000000	42
87.1030000000	40
87.1330000000	36
87.1630000000	35
87.1930000000	30
87.2230000000	38
87.2530000000	45
87.2830000000	32
87.3130000000	18
87.3430000000	32
87.3730000000	33
87.4030000000	45
87.4330000000	39
87.4630000000	42
87.4930000000	54
87.5230000000	39
87.5530000000	40
87.5830000000	42
87.6130000000	34
87.6430000000	36
87.6730000000	44
87.7030000000	45
87.7330000000	40
87.7630000000	38
87.7930000000	46
87.8230000000	44
87.8530000000	29
87.8830000000	40
87.9130000000	34
87.9430000000	37
87.9730000000	29
88.0030000000	42
88.0330000000	31
88.0630000000	41
88.0930000000	35
88.1230000000	33
88.1530000000	54
88.1830000000	33
88.2130000000	50
88.2430000000	56
88.2730000000	46
88.3030000000	41
88.3330000000	51
88.3630000000	39
88.3930000000	40
88.4230000000	41
88.4530000000	36
88.4830000000	50
88.5130000000	57
88.5430000000	44
88.5730000000	45
88.6030000000	43
88.6330000000	53
88.6630000000	51
88.6930000000	40
88.7230000000	37
88.7530000000	48
88.7830000000	39
88.8130000000	48
88.8430000000	31
88.8730000000	45
88.9030000000	51
88.9330000000	37
88.9630000000	36
88.9930000000	41
89.0230000000	34
89.0530000000	39
89.0830000000	35
89.1130000000	42
89.1430000000	45
89.1730000000	47
89.2030000000	49
89.2330000000	39
89.2630000000	36
89.2930000000	39
89.3230000000	41
89.3530000000	39
89.3830000000	37
89.4130000000	41
89.4430000000	32
89.4730000000	31
89.5030000000	33
89.5330000000	40
89.5630000000	35
89.5930000000	38
89.6230000000	43
89.6530000000	43
89.6830000000	46
89.7130000000	41
89.7430000000	44
89.7730000000	40
89.8030000000	39
89.8330000000	45
89.8630000000	38
89.8930000000	38
89.9230000000	33
89.9530000000	37
89.9830000000	47
90.0130000000	39
90.0430000000	35
90.0730000000	38
90.1030000000	49
90.1330000000	42
90.1630000000	30
90.1930000000	41
90.2230000000	38
90.2530000000	37
90.2830000000	36
90.3130000000	42
90.3430000000	47
90.3730000000	45
90.4030000000	33
90.4330000000	42
90.4630000000	29
90.4930000000	38
90.5230000000	37
90.5530000000	39
90.5830000000	33
90.6130000000	35
90.6430000000	56
90.6730000000	39
90.7030000000	39
90.7330000000	37
90.7630000000	47
90.7930000000	49
90.8230000000	35
90.8530000000	38
90.8830000000	44
90.9130000000	38
90.9430000000	37
90.9730000000	36
91.0030000000	51
91.0330000000	38
91.0630000000	42
91.0930000000	47
91.1230000000	47
91.1530000000	42
91.1830000000	42
91.2130000000	35
91.2430000000	31
91.2730000000	33
91.3030000000	34
91.3330000000	32
91.3630000000	30
91.3930000000	37
91.4230000000	46
91.4530000000	40
91.4830000000	26
91.5130000000	34
91.5430000000	46
91.5730000000	34
91.6030000000	30
91.6330000000	39
91.6630000000	33
91.6930000000	30
91.7230000000	42
91.7530000000	29
91.7830000000	44
91.8130000000	39
91.8430000000	38
91.8730000000	44
91.9030000000	47
91.9330000000	41
91.9630000000	32
91.9930000000	38
92.0230000000	47
92.0530000000	46
92.0830000000	49
92.1130000000	38
92.1430000000	48
92.1730000000	55
92.2030000000	39
92.2330000000	37
92.2630000000	29
92.2930000000	41
92.3230000000	38
92.3530000000	45
92.3830000000	35
92.4130000000	41
92.4430000000	34
92.4730000000	53
92.5030000000	32
92.5330000000	41
92.5630000000	39
92.5930000000	45
92.6230000000	33
92.6530000000	39
92.6830000000	40
92.7130000000	37
92.7430000000	38
92.7730000000	43
92.8030000000	36
92.8330000000	37
92.8630000000	55
92.8930000000	49
92.9230000000	56
92.9530000000	45
92.9830000000	38
93.0130000000	52
93.0430000000	49
93.0730000000	45
93.1030000000	41
93.1330000000	36
93.1630000000	31
93.1930000000	40
93.2230000000	48
93.2530000000	40
93.2830000000	32
93.3130000000	35
93.3430000000	40
93.3730000000	36
93.4030000000	40
93.4330000000	45
93.4630000000	41
93.4930000000	39
93.5230000000	41
93.5530000000	49
93.5830000000	36
93.6130000000	34
93.6430000000	40
93.6730000000	41
93.7030000000	45
93.7330000000	36
93.7630000000	41
93.7930000000	47
93.8230000000	37
93.8530000000	42
93.8830000000	45
93.9130000000	33
93.9430000000	35
93.9730000000	29
94.0030000000	42
94.0330000000	43
94.0630000000	45
94.0930000000	36
94.1230000000	35
94.1530000000	40
94.1830000000	44
94.2130000000	42
94.2430000000	46
94.2730000000	49
94.3030000000	42
94.3330000000	61
94.3630000000	45
94.3930000000	43
94.4230000000	50
94.4530000000	72
94.4830000000	54
94.5130000000	54
94.5430000000	69
94.5730000000	53
94.6030000000	52
94.6330000000	63
94.6630000000	50
94.6930000000	42
94.7230000000	53
94.7530000000	54
94.7830000000	42
94.8130000000	43
94.8430000000	45
94.8730000000	44
94.9030000000	32
94.9330000000	49
94.9630000000	57
94.9930000000	42
95.0230000000	45
95.0530000000	48
95.0830000000	35
95.1130000000	26
95.1430000000	41
95.1730000000	54
95.2030000000	42
95.2330000000	41
95.2630000000	31
95.2930000000	45
95.3230000000	37
95.3530000000	40
95.3830000000	41
95.4130000000	40
95.4430000000	39
95.4730000000	41
95.5030000000	37
95.5330000000	48
95.5630000000	37
95.5930000000	46
95.6230000000	47
95.6530000000	51
95.6830000000	40
95.7130000000	44
95.7430000000	45
95.7730000000	39
95.8030000000	41
95.8330000000	38
95.8630000000	35
95.8930000000	41
95.9230000000	48
95.9530000000	39
95.9830000000	42
96.0130000000	35
96.0430000000	32
96.0730000000	35
96.1030000000	34
96.1330000000	46
96.1630000000	47
96.1930000000	42
96.2230000000	45
96.2530000000	51
96.2830000000	41
96.3130000000	35
96.3430000000	35
96.3730000000	45
96.4030000000	47
96.4330000000	30
96.4630000000	30
96.4930000000	37
96.5230000000	35
96.5530000000	39
96.5830000000	33
96.6130000000	43
96.6430000000	47
96.6730000000	35
96.7030000000	42
96.7330000000	56
96.7630000000	38
96.7930000000	49
96.8230000000	35
96.8530000000	49
96.8830000000	45
96.9130000000	31
96.9430000000	42
96.9730000000	47
97.0030000000	42
97.0330000000	39
97.0630000000	39
97.0930000000	36
97.1230000000	33
97.1530000000	37
97.1830000000	37
97.2130000000	46
97.2430000000	37
97.2730000000	44
97.3030000000	46
97.3330000000	40
97.3630000000	37
97.3930000000	36
97.4230000000	38
97.4530000000	39
97.4830000000	42
97.5130000000	43
97.5430000000	29
97.5730000000	38
97.6030000000	42
97.6330000000	42
97.6630000000	49
97.6930000000	40
97.7230000000	40
97.7530000000	30
97.7830000000	41
97.8130000000	40
97.8430000000	27
97.8730000000	41
97.9030000000	33
97.9330000000	34
97.9630000000	41
97.9930000000	39
98.0230000000	32
98.0530000000	49
98.0830000000	45
98.1130000000	33
98.1430000000	41
98.1730000000	40
98.2030000000	41
98.2330000000	45
98.2630000000	43
98.2930000000	34
98.3230000000	29
98.3530000000	30
98.3830000000	35
98.4130000000	41
98.4430000000	38
98.4730000000	29
98.5030000000	41
98.5330000000	36
98.5630000000	41
98.5930000000	37
98.6230000000	32
98.6530000000	38
98.6830000000	34
98.7130000000	34
98.7430000000	49
98.7730000000	51
98.8030000000	35
98.8330000000	29
98.8630000000	37
98.8930000000	34
98.9230000000	40
98.9530000000	42
98.9830000000	47
99.0130000000	47
99.0430000000	36
99.0730000000	36
99.1030000000	42
99.1330000000	42
99.1630000000	36
99.1930000000	34
99.2230000000	42
99.2530000000	42
99.2830000000	34
99.3130000000	34
99.3430000000	49
99.3730000000	33
99.4030000000	25
99.4330000000	49
99.4630000000	36
99.4930000000	29
99.5230000000	41
99.5530000000	47
99.5830000000	30
99.6130000000	50
99.6430000000	37
99.6730000000	31
99.7030000000	27
99.7330000000	34
99.7630000000	38
99.7930000000	39
99.8230000000	41
99.8530000000	36
99.8830000000	41
99.9130000000	36
99.9430000000	31
99.9730000000	40
100.0030000000	39
100.0330000000	34
100.0630000000	34
100.0930000000	41
100.1230000000	42
100.1530000000	38
100.1830000000	40
100.2130000000	43
100.2430000000	42
100.2730000000	37
100.3030000000	29
100.3330000000	42
100.3630000000	35
100.3930000000	37
100.4230000000	51
100.4530000000	51
100.4830000000	37
100.5130000000	30
100.5430000000	31
100.5730000000	37
100.6030000000	39
100.6330000000	45
100.6630000000	38
100.6930000000	38
100.7230000000	36
100.7530000000	46
100.7830000000	31
100.8130000000	36
100.8430000000	36
100.8730000000	27
100.9030000000	43
100.9330000000	38
100.9630000000	37
100.9930000000	41
101.0230000000	48
101.0530000000	51
101.0830000000	50
101.1130000000	44
101.1430000000	36
101.1730000000	43
101.2030000000	48
101.2330000000	44
101.2630000000	45
101.2930000000	39
101.3230000000	32
101.3530000000	36
101.3830000000	33
101.4130000000	34
101.4430000000	34
101.4730000000	34
101.5030000000	43
101.5330000000	36
101.5630000000	31
101.5930000000	38
101.6230000000	34
101.6530000000	36
101.6830000000	41
101.7130000000	26
101.7430000000	35
101.7730000000	37
101.8030000000	46
101.8330000000	34
101.8630000000	30
101.8930000000	33
101.9230000000	41
101.9530000000	45
101.9830000000	35
102.0130000000	43
102.0430000000	38
102.0730000000	36
102.1030000000	38
102.1330000000	33
102.1630000000	36
102.1930000000	27
102.2230000000	34
102.2530000000	33
102.2830000000	50
102.3130000000	34
102.3430000000	36
102.3730000000	36
102.4030000000	37
102.4330000000	27
102.4630000000	40
102.4930000000	37
102.5230000000	38
102.5530000000	33
102.5830000000	42
102.6130000000	36
102.6430000000	36
102.6730000000	40
102.7030000000	40
102.7330000000	41
102.7630000000	54
102.7930000000	40
102.8230000000	48
102.8530000000	51
102.8830000000	52
102.9130000000	60
102.9430000000	55
102.9730000000	58
103.0030000000	55
103.0330000000	58
103.0630000000	49
103.0930000000	48
103.1230000000	50
103.1530000000	44
103.1830000000	41
103.2130000000	48
103.2430000000	45
103.2730000000	42
103.3030000000	44
103.3330000000	38
103.3630000000	49
103.3930000000	37
103.4230000000	45
103.4530000000	37
103.4830000000	37
103.5130000000	40
103.5430000000	31
103.5730000000	46
103.6030000000	34
103.6330000000	31
103.6630000000	38
103.6930000000	33
103.7230000000	24
103.7530000000	40
103.7830000000	45
103.8130000000	43
103.8430000000	42
103.8730000000	39
103.9030000000	41
103.9330000000	40
103.9630000000	24
103.9930000000	47
104.0230000000	43
104.0530000000	46
104.0830000000	41
104.1130000000	26
104.1430000000	43
104.1730000000	47
104.2030000000	53
104.2330000000	62
104.2630000000	45
104.2930000000	46
104.3230000000	40
104.3530000000	53
104.3830000000	31
104.4130000000	44
104.4430000000	44
104.4730000000	44
104.5030000000	40
104.5330000000	29
104.5630000000	40
104.5930000000	44
104.6230000000	47
104.6530000000	35
104.6830000000	35
104.7130000000	34
104.7430000000	37
104.7730000000	43
104.8030000000	40
104.8330000000	37
104.8630000000	36
104.8930000000	32
104.9230000000	39
104.9530000000	34
104.9830000000	31
105.0130000000	33
105.0430000000	32
105.0730000000	31
105.1030000000	33
105.1330000000	46
105.1630000000	48
105.1930000000	35
105.2230000000	37
105.2530000000	45
105.2830000000	28
105.3130000000	34
105.3430000000	34
105.3730000000	31
105.4030000000	32
105.4330000000	41
105.4630000000	36
105.4930000000	39
105.5230000000	32
105.5530000000	38
105.5830000000	52
105.6130000000	27
105.6430000000	38
105.6730000000	45
105.7030000000	33
105.7330000000	33
105.7630000000	39
105.7930000000	33
105.8230000000	37
105.8530000000	26
105.8830000000	32
105.9130000000	40
105.9430000000	37
105.9730000000	39
106.0030000000	42
106.0330000000	32
106.0630000000	29
106.0930000000	33
106.1230000000	27
106.1530000000	34
106.1830000000	33
106.2130000000	39
106.2430000000	36
106.2730000000	37
106.3030000000	29
106.3330000000	36
106.3630000000	48
106.3930000000	39
106.4230000000	39
106.4530000000	34
106.4830000000	38
106.5130000000	52
106.5430000000	36
106.5730000000	37
106.6030000000	31
106.6330000000	32
106.6630000000	30
106.6930000000	43
106.7230000000	40
106.7530000000	32
106.7830000000	35
106.8130000000	30
106.8430000000	44
106.8730000000	42
106.9030000000	36
106.9330000000	31
106.9630000000	31
106.9930000000	45
107.0230000000	39
107.0530000000	27
107.0830000000	43
107.1130000000	39
107.1430000000	28
107.1730000000	40
107.2030000000	36
107.2330000000	27
107.2630000000	36
107.2930000000	33
107.3230000000	30
107.3530000000	36
107.3830000000	28
107.4130000000	37
107.4430000000	41
107.4730000000	45
107.5030000000	38
107.5330000000	31
107.5630000000	42
107.5930000000	44
107.6230000000	38
107.6530000000	43
107.6830000000	45
107.7130000000	39
107.7430000000	35
107.7730000000	30
107.8030000000	37
107.8330000000	41
107.8630000000	40
107.8930000000	40
107.9230000000	36
107.9530000000	37
107.9830000000	39
108.0130000000	51
108.0430000000	33
108.0730000000	33
108.1030000000	38
108.1330000000	56
108.1630000000	36
108.1930000000	36
108.2230000000	34
108.2530000000	32
108.2830000000	36
108.3130000000	39
108.3430000000	35
108.3730000000	35
108.4030000000	44
108.4330000000	39
108.4630000000	33
108.4930000000	46
108.5230000000	44
108.5530000000	48
108.5830000000	33
108.6130000000	41
108.6430000000	33
108.6730000000	37
108.7030000000	42
108.7330000000	39
108.7630000000	40
108.7930000000	26
108.8230000000	34
108.8530000000	39
108.8830000000	44
108.9130000000	21
108.9430000000	35
108.9730000000	29
109.0030000000	32
109.0330000000	40
109.0630000000	38
109.0930000000	38
109.1230000000	25
109.1530000000	43
109.1830000000	37
109.2130000000	31
109.2430000000	35
109.2730000000	44
109.3030000000	39
109.3330000000	30
109.3630000000	37
109.3930000000	46
109.4230000000	45
109.4530000000	38
109.4830000000	54
109.5130000000	43
109.5430000000	40
109.5730000000	50
109.6030000000	43
109.6330000000	50
109.6630000000	32
109.6930000000	43
109.7230000000	37
109.7530000000	40
109.7830000000	36
109.8130000000	40
109.8430000000	43
109.8730000000	34
109.9030000000	38
109.9330000000	53
109.9630000000	41
109.9930000000	39
110.0230000000	29
110.0530000000	33
110.0830000000	43
110.1130000000	36
110.1430000000	33
110.1730000000	35
110.2030000000	44
110.2330000000	34
110.2630000000	28
110.2930000000	28
110.3230000000	33
110.3530000000	43
110.3830000000	38
110.4130000000	32
110.4430000000	39
110.4730000000	38
110.5030000000	29
110.5330000000	31
110.5630000000	39
110.5930000000	27
110.6230000000	36
110.6530000000	37
110.6830000000	27
110.7130000000	33
110.7430000000	39
110.7730000000	41
110.8030000000	40
110.8330000000	40
110.8630000000	38
110.8930000000	39
110.9230000000	35
110.9530000000	34
110.9830000000	30
111.0130000000	30
111.0430000000	32
111.0730000000	35
111.1030000000	38
111.1330000000	32
111.1630000000	33
111.1930000000	43
111.2230000000	45
111.2530000000	37
111.2830000000	31
111.3130000000	41
111.3430000000	26
111.3730000000	46
111.4030000000	39
111.4330000000	40
111.4630000000	49
111.4930000000	34
111.5230000000	36
111.5530000000	42
111.5830000000	32
111.6130000000	35
111.6430000000	40
111.6730000000	37
111.7030000000	43
111.7330000000	25
111.7630000000	37
111.7930000000	40
111.8230000000	25
111.8530000000	38
111.8830000000	41
111.9130000000	42
111.9430000000	53
111.9730000000	45
112.0030000000	53
112.0330000000	33
112.0630000000	40
112.0930000000	32
112.1230000000	30
112.1530000000	48
112.1830000000	36
112.2130000000	29
112.2430000000	45
112.2730000000	37
112.3030000000	37
112.3330000000	34
112.3630000000	32
112.3930000000	36
112.4230000000	39
112.4530000000	34
112.4830000000	41
112.5130000000	33
112.5430000000	33
112.5730000000	33
112.6030000000	48
112.6330000000	41
112.6630000000	28
112.6930000000	36
112.7230000000	44
112.7530000000	38
112.7830000000	35
112.8130000000	43
112.8430000000	41
112.8730000000	33
112.9030000000	32
112.9330000000	29
112.9630000000	35
112.9930000000	41
113.0230000000	41
113.0530000000	43
113.0830000000	34
113.1130000000	40
113.1430000000	33
113.1730000000	31
113.2030000000	32
113.2330000000	35
113.2630000000	32
113.2930000000	40
113.3230000000	35
113.3530000000	46
113.3830000000	40
113.4130000000	33
113.4430000000	43
113.4730000000	44
113.5030000000	41
113.5330000000	30
113.5630000000	36
113.5930000000	37
113.6230000000	42
113.6530000000	36
113.6830000000	36
113.7130000000	53
113.7430000000	45
113.7730000000	42
113.8030000000	47
113.8330000000	42
113.8630000000	39
113.8930000000	36
113.9230000000	28
113.9530000000	38
113.9830000000	37
114.0130000000	32
114.0430000000	30
114.0730000000	42
114.1030000000	30
114.1330000000	40
114.1630000000	50
114.1930000000	42
114.2230000000	44
114.2530000000	41
114.2830000000	35
114.3130000000	34
114.3430000000	31
114.3730000000	38
114.4030000000	38
114.4330000000	40
114.4630000000	1
114.4930000000	1
114.5230000000	1
114.5530000000	1
114.5830000000	1
