0.3130000000	1
0.3430000000	1
0.3730000000	1
0.4030000000	1
0.4330000000	1
0.4630000000	1
0.4930000000	2
0.5230000000	1
0.5530000000	1
0.5830000000	1
0.6130000000	1
0.6430000000	1
0.6730000000	1
0.7030000000	1
0.7330000000	1
0.7630000000	1
0.7930000000	1
0.8230000000	1
0.8530000000	1
0.8830000000	1
0.9130000000	1
0.9430000000	1
0.9730000000	1
1.0030000000	1
1.0330000000	1
1.0630000000	1
1.0930000000	1
1.1230000000	2
1.1530000000	1
1.1830000000	1
1.2130000000	1
1.2430000000	1
1.2730000000	1
1.3030000000	1
1.3330000000	1
1.3630000000	1
1.3930000000	1
1.4230000000	1
1.4530000000	2
1.4830000000	1
1.5130000000	1
1.5430000000	1
1.5730000000	1
1.6030000000	1
1.6330000000	1
1.6630000000	1
1.6930000000	1
1.7230000000	1
1.7530000000	1
1.7830000000	1
1.8130000000	1
1.8430000000	1
1.8730000000	1
1.9030000000	2
1.9330000000	1
1.9630000000	1
1.9930000000	1
2.0230000000	1
2.0530000000	1
2.0830000000	1
2.1130000000	2
2.1430000000	2
2.1730000000	2
2.2030000000	1
2.2330000000	1
2.2630000000	1
2.2930000000	2
2.3230000000	2
2.3530000000	1
2.3830000000	1
2.4130000000	1
2.4430000000	1
2.4730000000	2
2.5030000000	2
2.5330000000	1
2.5630000000	1
2.5930000000	2
2.6230000000	2
2.6530000000	1
2.6830000000	2
2.7130000000	2
2.7430000000	1
2.7730000000	2
2.8030000000	1
2.8330000000	1
2.8630000000	1
2.8930000000	1
2.9230000000	2
2.9530000000	5
2.9830000000	0
3.0130000000	1
3.0430000000	1
3.0730000000	2
3.1030000000	1
3.1330000000	2
3.1630000000	1
3.1930000000	2
3.2230000000	2
3.2530000000	2
3.2830000000	4
3.3130000000	3
3.3430000000	3
3.3730000000	3
3.4030000000	1
3.4330000000	2
3.4630000000	2
3.4930000000	2
3.5230000000	2
3.5530000000	4
3.5830000000	1
3.6130000000	2
3.6430000000	1
3.6730000000	4
3.7030000000	1
3.7330000000	1
3.7630000000	2
3.7930000000	4
3.8230000000	3
3.8530000000	2
3.8830000000	1
3.9130000000	1
3.9430000000	3
3.9730000000	3
4.0030000000	5
4.0330000000	2
4.0630000000	2
4.0930000000	3
4.1230000000	1
4.1530000000	4
4.1830000000	2
4.2130000000	2
4.2430000000	4
4.2730000000	3
4.3030000000	4
4.3330000000	4
4.3630000000	2
4.3930000000	6
4.4230000000	7
4.4530000000	11
4.4830000000	18
4.5130000000	27
4.5430000000	37
4.5730000000	47
4.6030000000	94
4.6330000000	84
4.6630000000	140
4.6930000000	128
4.7230000000	125
4.7530000000	129
4.7830000000	131
4.8130000000	151
4.8430000000	152
4.8730000000	143
4.9030000000	137
4.9330000000	141
4.9630000000	147
4.9930000000	159
5.0230000000	140
5.0530000000	131
5.0830000000	153
5.1130000000	155
5.1430000000	132
5.1730000000	126
5.2030000000	130
5.2330000000	159
5.2630000000	157
5.2930000000	143
5.3230000000	142
5.3530000000	156
5.3830000000	152
5.4130000000	150
5.4430000000	142
5.4730000000	144
5.5030000000	134
5.5330000000	156
5.5630000000	158
5.5930000000	128
5.6230000000	129
5.6530000000	135
5.6830000000	145
5.7130000000	132
5.7430000000	137
5.7730000000	146
5.8030000000	156
5.8330000000	164
5.8630000000	149
5.8930000000	128
5.9230000000	145
5.9530000000	154
5.9830000000	136
6.0130000000	172
6.0430000000	156
6.0730000000	147
6.1030000000	128
6.1330000000	152
6.1630000000	160
6.1930000000	156
6.2230000000	164
6.2530000000	170
6.2830000000	140
6.3130000000	156
6.3430000000	159
6.3730000000	189
6.4030000000	156
6.4330000000	140
6.4630000000	157
6.4930000000	143
6.5230000000	125
6.5530000000	130
6.5830000000	155
6.6130000000	152
6.6430000000	134
6.6730000000	146
6.7030000000	136
6.7330000000	156
6.7630000000	143
6.7930000000	157
6.8230000000	137
6.8530000000	138
6.8830000000	166
6.9130000000	154
6.9430000000	146
6.9730000000	129
7.0030000000	134
7.0330000000	134
7.0630000000	139
7.0930000000	124
7.1230000000	128
7.1530000000	131
7.1830000000	143
7.2130000000	153
7.2430000000	153
7.2730000000	160
7.3030000000	156
7.3330000000	164
7.3630000000	143
7.3930000000	138
7.4230000000	153
7.4530000000	141
7.4830000000	144
7.5130000000	145
7.5430000000	138
7.5730000000	157
7.6030000000	158
7.6330000000	151
7.6630000000	155
7.6930000000	149
7.7230000000	143
7.7530000000	140
7.7830000000	134
7.8130000000	151
7.8430000000	150
7.8730000000	140
7.9030000000	152
7.9330000000	140
7.9630000000	140
7.9930000000	154
8.0230000000	137
8.0530000000	155
8.0830000000	157
8.1130000000	131
8.1430000000	157
8.1730000000	144
8.2030000000	132
8.2330000000	146
8.2630000000	133
8.2930000000	127
8.3230000000	155
8.3530000000	145
8.3830000000	144
8.4130000000	157
8.4430000000	146
8.4730000000	166
8.5030000000	135
8.5330000000	125
8.5630000000	139
8.5930000000	128
8.6230000000	147
8.6530000000	134
8.6830000000	123
8.7130000000	160
8.7430000000	144
8.7730000000	153
8.8030000000	151
8.8330000000	146
8.8630000000	133
8.8930000000	133
8.9230000000	138
8.9530000000	138
8.9830000000	161
9.0130000000	153
9.0430000000	157
9.0730000000	140
9.1030000000	144
9.1330000000	124
9.1630000000	147
9.1930000000	145
9.2230000000	157
9.2530000000	148
9.2830000000	138
9.3130000000	146
9.3430000000	138
9.3730000000	141
9.4030000000	131
9.4330000000	149
9.4630000000	138
9.4930000000	144
9.5230000000	152
9.5530000000	158
9.5830000000	138
9.6130000000	136
9.6430000000	172
9.6730000000	162
9.7030000000	151
9.7330000000	169
9.7630000000	147
9.7930000000	143
9.8230000000	142
9.8530000000	151
9.8830000000	148
9.9130000000	158
9.9430000000	156
9.9730000000	151
10.0030000000	144
10.0330000000	132
10.0630000000	144
10.0930000000	163
10.1230000000	152
10.1530000000	144
10.1830000000	162
10.2130000000	130
10.2430000000	129
10.2730000000	131
10.3030000000	129
10.3330000000	158
10.3630000000	138
10.3930000000	140
10.4230000000	154
10.4530000000	136
10.4830000000	133
10.5130000000	145
10.5430000000	133
10.5730000000	145
10.6030000000	141
10.6330000000	147
10.6630000000	151
10.6930000000	154
10.7230000000	152
10.7530000000	154
10.7830000000	120
10.8130000000	160
10.8430000000	140
10.8730000000	133
10.9030000000	153
10.9330000000	146
10.9630000000	148
10.9930000000	134
11.0230000000	159
11.0530000000	150
11.0830000000	146
11.1130000000	127
11.1430000000	149
11.1730000000	151
11.2030000000	165
11.2330000000	139
11.2630000000	130
11.2930000000	155
11.3230000000	139
11.3530000000	160
11.3830000000	148
11.4130000000	172
11.4430000000	156
11.4730000000	147
11.5030000000	168
11.5330000000	141
11.5630000000	144
11.5930000000	154
11.6230000000	146
11.6530000000	145
11.6830000000	151
11.7130000000	135
11.7430000000	147
11.7730000000	159
11.8030000000	135
11.8330000000	135
11.8630000000	146
11.8930000000	163
11.9230000000	149
11.9530000000	165
11.9830000000	146
12.0130000000	153
12.0430000000	152
12.0730000000	160
12.1030000000	150
12.1330000000	137
12.1630000000	133
12.1930000000	130
12.2230000000	155
12.2530000000	137
12.2830000000	125
12.3130000000	135
12.3430000000	138
12.3730000000	150
12.4030000000	155
12.4330000000	142
12.4630000000	153
12.4930000000	141
12.5230000000	139
12.5530000000	155
12.5830000000	147
12.6130000000	140
12.6430000000	133
12.6730000000	135
12.7030000000	148
12.7330000000	133
12.7630000000	129
12.7930000000	152
12.8230000000	157
12.8530000000	143
12.8830000000	134
12.9130000000	143
12.9430000000	155
12.9730000000	148
13.0030000000	127
13.0330000000	131
13.0630000000	148
13.0930000000	148
13.1230000000	138
13.1530000000	129
13.1830000000	153
13.2130000000	137
13.2430000000	156
13.2730000000	144
13.3030000000	156
13.3330000000	158
13.3630000000	133
13.3930000000	154
13.4230000000	133
13.4530000000	153
13.4830000000	162
13.5130000000	151
13.5430000000	132
13.5730000000	155
13.6030000000	158
13.6330000000	150
13.6630000000	137
13.6930000000	138
13.7230000000	122
13.7530000000	135
13.7830000000	148
13.8130000000	153
13.8430000000	138
13.8730000000	156
13.9030000000	131
13.9330000000	140
13.9630000000	125
13.9930000000	161
14.0230000000	130
14.0530000000	135
14.0830000000	157
14.1130000000	174
14.1430000000	160
14.1730000000	121
14.2030000000	140
14.2330000000	148
14.2630000000	129
14.2930000000	129
14.3230000000	152
14.3530000000	166
14.3830000000	144
14.4130000000	145
14.4430000000	152
14.4730000000	144
14.5030000000	157
14.5330000000	146
14.5630000000	141
14.5930000000	141
14.6230000000	146
14.6530000000	146
14.6830000000	117
14.7130000000	138
14.7430000000	172
14.7730000000	115
14.8030000000	148
14.8330000000	147
14.8630000000	161
14.8930000000	144
14.9230000000	157
14.9530000000	141
14.9830000000	158
15.0130000000	149
15.0430000000	149
15.0730000000	138
15.1030000000	159
15.1330000000	157
15.1630000000	158
15.1930000000	143
15.2230000000	145
15.2530000000	153
15.2830000000	153
15.3130000000	148
15.3430000000	158
15.3730000000	137
15.4030000000	141
15.4330000000	167
15.4630000000	158
15.4930000000	142
15.5230000000	135
15.5530000000	133
15.5830000000	146
15.6130000000	130
15.6430000000	149
15.6730000000	156
15.7030000000	140
15.7330000000	159
15.7630000000	140
15.7930000000	146
15.8230000000	151
15.8530000000	153
15.8830000000	129
15.9130000000	146
15.9430000000	173
15.9730000000	132
16.0030000000	125
16.0330000000	167
16.0630000000	151
16.0930000000	146
16.1230000000	153
16.1530000000	147
16.1830000000	168
16.2130000000	153
16.2430000000	137
16.2730000000	152
16.3030000000	149
16.3330000000	152
16.3630000000	142
16.3930000000	136
16.4230000000	150
16.4530000000	142
16.4830000000	140
16.5130000000	161
16.5430000000	126
16.5730000000	147
16.6030000000	151
16.6330000000	149
16.6630000000	145
16.6930000000	147
16.7230000000	126
16.7530000000	144
16.7830000000	143
16.8130000000	145
16.8430000000	165
16.8730000000	157
16.9030000000	121
16.9330000000	145
16.9630000000	132
16.9930000000	141
17.0230000000	131
17.0530000000	145
17.0830000000	146
17.1130000000	164
17.1430000000	149
17.1730000000	128
17.2030000000	145
17.2330000000	165
17.2630000000	146
17.2930000000	160
17.3230000000	162
17.3530000000	149
17.3830000000	140
17.4130000000	150
17.4430000000	136
17.4730000000	147
17.5030000000	128
17.5330000000	132
17.5630000000	129
17.5930000000	138
17.6230000000	148
17.6530000000	146
17.6830000000	141
17.7130000000	132
17.7430000000	128
17.7730000000	130
17.8030000000	134
17.8330000000	134
17.8630000000	128
17.8930000000	137
17.9230000000	146
17.9530000000	146
17.9830000000	137
18.0130000000	135
18.0430000000	141
18.0730000000	124
18.1030000000	134
18.1330000000	134
18.1630000000	121
18.1930000000	136
18.2230000000	133
18.2530000000	140
18.2830000000	139
18.3130000000	131
18.3430000000	144
18.3730000000	151
18.4030000000	161
18.4330000000	167
18.4630000000	133
18.4930000000	141
18.5230000000	152
18.5530000000	138
18.5830000000	138
18.6130000000	145
18.6430000000	154
18.6730000000	157
18.7030000000	150
18.7330000000	149
18.7630000000	139
18.7930000000	154
18.8230000000	144
18.8530000000	157
18.8830000000	146
18.9130000000	132
18.9430000000	138
18.9730000000	153
19.0030000000	155
19.0330000000	134
19.0630000000	122
19.0930000000	145
19.1230000000	150
19.1530000000	150
19.1830000000	142
19.2130000000	149
19.2430000000	151
19.2730000000	144
19.3030000000	135
19.3330000000	137
19.3630000000	158
19.3930000000	132
19.4230000000	140
19.4530000000	146
19.4830000000	152
19.5130000000	148
19.5430000000	146
19.5730000000	156
19.6030000000	139
19.6330000000	148
19.6630000000	160
19.6930000000	137
19.7230000000	152
19.7530000000	130
19.7830000000	148
19.8130000000	139
19.8430000000	137
19.8730000000	168
19.9030000000	144
19.9330000000	133
19.9630000000	148
19.9930000000	157
20.0230000000	154
20.0530000000	160
20.0830000000	144
20.1130000000	159
20.1430000000	157
20.1730000000	133
20.2030000000	156
20.2330000000	147
20.2630000000	166
20.2930000000	137
20.3230000000	133
20.3530000000	151
20.3830000000	156
20.4130000000	153
20.4430000000	187
20.4730000000	170
20.5030000000	164
20.5330000000	174
20.5630000000	166
20.5930000000	173
20.6230000000	201
20.6530000000	198
20.6830000000	262
20.7130000000	287
20.7430000000	355
20.7730000000	501
20.8030000000	634
20.8330000000	828
20.8630000000	970
20.8930000000	913
20.9230000000	789
20.9530000000	538
20.9830000000	423
21.0130000000	302
21.0430000000	231
21.0730000000	232
21.1030000000	181
21.1330000000	173
21.1630000000	184
21.1930000000	148
21.2230000000	171
21.2530000000	157
21.2830000000	160
21.3130000000	163
21.3430000000	150
21.3730000000	141
21.4030000000	142
21.4330000000	153
21.4630000000	153
21.4930000000	152
21.5230000000	156
21.5530000000	163
21.5830000000	147
21.6130000000	136
21.6430000000	129
21.6730000000	162
21.7030000000	164
21.7330000000	140
21.7630000000	171
21.7930000000	160
21.8230000000	151
21.8530000000	148
21.8830000000	161
21.9130000000	175
21.9430000000	133
21.9730000000	149
22.0030000000	167
22.0330000000	171
22.0630000000	154
22.0930000000	182
22.1230000000	154
22.1530000000	142
22.1830000000	149
22.2130000000	154
22.2430000000	154
22.2730000000	180
22.3030000000	159
22.3330000000	155
22.3630000000	188
22.3930000000	174
22.4230000000	181
22.4530000000	165
22.4830000000	156
22.5130000000	187
22.5430000000	182
22.5730000000	164
22.6030000000	170
22.6330000000	188
22.6630000000	185
22.6930000000	172
22.7230000000	173
22.7530000000	152
22.7830000000	159
22.8130000000	142
22.8430000000	148
22.8730000000	165
22.9030000000	153
22.9330000000	154
22.9630000000	157
22.9930000000	164
23.0230000000	165
23.0530000000	158
23.0830000000	172
23.1130000000	169
23.1430000000	152
23.1730000000	165
23.2030000000	180
23.2330000000	167
23.2630000000	151
23.2930000000	178
23.3230000000	156
23.3530000000	166
23.3830000000	188
23.4130000000	179
23.4430000000	170
23.4730000000	203
23.5030000000	172
23.5330000000	151
23.5630000000	184
23.5930000000	170
23.6230000000	141
23.6530000000	159
23.6830000000	147
23.7130000000	175
23.7430000000	157
23.7730000000	184
23.8030000000	164
23.8330000000	161
23.8630000000	130
23.8930000000	155
23.9230000000	178
23.9530000000	183
23.9830000000	158
24.0130000000	144
24.0430000000	157
24.0730000000	174
24.1030000000	148
24.1330000000	182
24.1630000000	135
24.1930000000	174
24.2230000000	172
24.2530000000	191
24.2830000000	177
24.3130000000	166
24.3430000000	153
24.3730000000	151
24.4030000000	140
24.4330000000	170
24.4630000000	149
24.4930000000	145
24.5230000000	166
24.5530000000	150
24.5830000000	152
24.6130000000	148
24.6430000000	166
24.6730000000	153
24.7030000000	146
24.7330000000	164
24.7630000000	161
24.7930000000	150
24.8230000000	164
24.8530000000	157
24.8830000000	165
24.9130000000	171
24.9430000000	148
24.9730000000	176
25.0030000000	186
25.0330000000	173
25.0630000000	163
25.0930000000	169
25.1230000000	178
25.1530000000	165
25.1830000000	176
25.2130000000	168
25.2430000000	174
25.2730000000	169
25.3030000000	151
25.3330000000	177
25.3630000000	150
25.3930000000	170
25.4230000000	198
25.4530000000	147
25.4830000000	152
25.5130000000	163
25.5430000000	178
25.5730000000	165
25.6030000000	150
25.6330000000	191
25.6630000000	175
25.6930000000	181
25.7230000000	168
25.7530000000	185
25.7830000000	186
25.8130000000	253
25.8430000000	302
25.8730000000	400
25.9030000000	504
25.9330000000	697
25.9630000000	987
25.9930000000	1215
26.0230000000	1424
26.0530000000	1367
26.0830000000	1106
26.1130000000	770
26.1430000000	512
26.1730000000	382
26.2030000000	276
26.2330000000	255
26.2630000000	216
26.2930000000	190
26.3230000000	176
26.3530000000	175
26.3830000000	160
26.4130000000	161
26.4430000000	175
26.4730000000	167
26.5030000000	154
26.5330000000	146
26.5630000000	153
26.5930000000	151
26.6230000000	155
26.6530000000	164
26.6830000000	159
26.7130000000	168
26.7430000000	139
26.7730000000	143
26.8030000000	157
26.8330000000	147
26.8630000000	159
26.8930000000	161
26.9230000000	147
26.9530000000	142
26.9830000000	138
27.0130000000	142
27.0430000000	157
27.0730000000	153
27.1030000000	137
27.1330000000	146
27.1630000000	153
27.1930000000	137
27.2230000000	129
27.2530000000	155
27.2830000000	162
27.3130000000	152
27.3430000000	149
27.3730000000	138
27.4030000000	138
27.4330000000	144
27.4630000000	146
27.4930000000	133
27.5230000000	125
27.5530000000	143
27.5830000000	154
27.6130000000	149
27.6430000000	133
27.6730000000	158
27.7030000000	138
27.7330000000	127
27.7630000000	127
27.7930000000	151
27.8230000000	150
27.8530000000	144
27.8830000000	165
27.9130000000	137
27.9430000000	141
27.9730000000	157
28.0030000000	161
28.0330000000	153
28.0630000000	143
28.0930000000	174
28.1230000000	174
28.1530000000	244
28.1830000000	266
28.2130000000	266
28.2430000000	250
28.2730000000	209
28.3030000000	182
28.3330000000	169
28.3630000000	164
28.3930000000	150
28.4230000000	145
28.4530000000	143
28.4830000000	130
28.5130000000	136
28.5430000000	154
28.5730000000	150
28.6030000000	146
28.6330000000	139
28.6630000000	155
28.6930000000	130
28.7230000000	131
28.7530000000	133
28.7830000000	136
28.8130000000	132
28.8430000000	141
28.8730000000	131
28.9030000000	117
28.9330000000	130
28.9630000000	147
28.9930000000	139
29.0230000000	142
29.0530000000	135
29.0830000000	121
29.1130000000	122
29.1430000000	121
29.1730000000	112
29.2030000000	126
29.2330000000	118
29.2630000000	121
29.2930000000	116
29.3230000000	103
29.3530000000	128
29.3830000000	124
29.4130000000	122
29.4430000000	135
29.4730000000	119
29.5030000000	119
29.5330000000	116
29.5630000000	143
29.5930000000	121
29.6230000000	116
29.6530000000	126
29.6830000000	105
29.7130000000	133
29.7430000000	110
29.7730000000	122
29.8030000000	125
29.8330000000	106
29.8630000000	129
29.8930000000	114
29.9230000000	131
29.9530000000	108
29.9830000000	99
30.0130000000	110
30.0430000000	144
30.0730000000	138
30.1030000000	128
30.1330000000	113
30.1630000000	150
30.1930000000	113
30.2230000000	140
30.2530000000	115
30.2830000000	115
30.3130000000	120
30.3430000000	138
30.3730000000	124
30.4030000000	114
30.4330000000	125
30.4630000000	110
30.4930000000	136
30.5230000000	107
30.5530000000	113
30.5830000000	106
30.6130000000	100
30.6430000000	127
30.6730000000	117
30.7030000000	120
30.7330000000	136
30.7630000000	120
30.7930000000	110
30.8230000000	107
30.8530000000	115
30.8830000000	104
30.9130000000	108
30.9430000000	136
30.9730000000	114
31.0030000000	112
31.0330000000	118
31.0630000000	127
31.0930000000	118
31.1230000000	117
31.1530000000	111
31.1830000000	128
31.2130000000	126
31.2430000000	107
31.2730000000	122
31.3030000000	106
31.3330000000	102
31.3630000000	117
31.3930000000	107
31.4230000000	95
31.4530000000	103
31.4830000000	96
31.5130000000	113
31.5430000000	99
31.5730000000	127
31.6030000000	117
31.6330000000	109
31.6630000000	111
31.6930000000	99
31.7230000000	96
31.7530000000	105
31.7830000000	123
31.8130000000	114
31.8430000000	91
31.8730000000	105
31.9030000000	106
31.9330000000	103
31.9630000000	91
31.9930000000	105
32.0230000000	114
32.0530000000	115
32.0830000000	110
32.1130000000	118
32.1430000000	114
32.1730000000	104
32.2030000000	101
32.2330000000	100
32.2630000000	107
32.2930000000	106
32.3230000000	108
32.3530000000	93
32.3830000000	111
32.4130000000	119
32.4430000000	112
32.4730000000	92
32.5030000000	107
32.5330000000	121
32.5630000000	96
32.5930000000	96
32.6230000000	114
32.6530000000	109
32.6830000000	91
32.7130000000	102
32.7430000000	115
32.7730000000	96
32.8030000000	108
32.8330000000	123
32.8630000000	112
32.8930000000	114
32.9230000000	115
32.9530000000	88
32.9830000000	109
33.0130000000	99
33.0430000000	103
33.0730000000	118
33.1030000000	105
33.1330000000	112
33.1630000000	111
33.1930000000	123
33.2230000000	141
33.2530000000	137
33.2830000000	130
33.3130000000	155
33.3430000000	197
33.3730000000	240
33.4030000000	330
33.4330000000	506
33.4630000000	845
33.4930000000	1270
33.5230000000	1869
33.5530000000	2807
33.5830000000	4188
33.6130000000	5077
33.6430000000	4314
33.6730000000	3134
33.7030000000	2078
33.7330000000	1290
33.7630000000	787
33.7930000000	488
33.8230000000	350
33.8530000000	224
33.8830000000	194
33.9130000000	152
33.9430000000	130
33.9730000000	133
34.0030000000	123
34.0330000000	115
34.0630000000	117
34.0930000000	116
34.1230000000	113
34.1530000000	112
34.1830000000	95
34.2130000000	104
34.2430000000	106
34.2730000000	105
34.3030000000	103
34.3330000000	107
34.3630000000	114
34.3930000000	86
34.4230000000	91
34.4530000000	97
34.4830000000	90
34.5130000000	94
34.5430000000	114
34.5730000000	104
34.6030000000	97
34.6330000000	103
34.6630000000	109
34.6930000000	97
34.7230000000	84
34.7530000000	67
34.7830000000	92
34.8130000000	99
34.8430000000	102
34.8730000000	92
34.9030000000	85
34.9330000000	77
34.9630000000	78
34.9930000000	88
35.0230000000	85
35.0530000000	86
35.0830000000	93
35.1130000000	87
35.1430000000	85
35.1730000000	96
35.2030000000	93
35.2330000000	77
35.2630000000	93
35.2930000000	90
35.3230000000	79
35.3530000000	80
35.3830000000	111
35.4130000000	104
35.4430000000	97
35.4730000000	94
35.5030000000	79
35.5330000000	82
35.5630000000	85
35.5930000000	111
35.6230000000	96
35.6530000000	82
35.6830000000	81
35.7130000000	77
35.7430000000	93
35.7730000000	82
35.8030000000	99
35.8330000000	107
35.8630000000	105
35.8930000000	94
35.9230000000	82
35.9530000000	89
35.9830000000	111
36.0130000000	126
36.0430000000	143
36.0730000000	160
36.1030000000	202
36.1330000000	232
36.1630000000	303
36.1930000000	316
36.2230000000	308
36.2530000000	244
36.2830000000	213
36.3130000000	167
36.3430000000	151
36.3730000000	123
36.4030000000	103
36.4330000000	97
36.4630000000	93
36.4930000000	101
36.5230000000	105
36.5530000000	103
36.5830000000	95
36.6130000000	95
36.6430000000	84
36.6730000000	85
36.7030000000	101
36.7330000000	108
36.7630000000	89
36.7930000000	76
36.8230000000	95
36.8530000000	97
36.8830000000	102
36.9130000000	87
36.9430000000	97
36.9730000000	93
37.0030000000	76
37.0330000000	86
37.0630000000	75
37.0930000000	85
37.1230000000	111
37.1530000000	90
37.1830000000	87
37.2130000000	101
37.2430000000	80
37.2730000000	104
37.3030000000	110
37.3330000000	93
37.3630000000	87
37.3930000000	97
37.4230000000	114
37.4530000000	111
37.4830000000	106
37.5130000000	109
37.5430000000	89
37.5730000000	97
37.6030000000	101
37.6330000000	91
37.6630000000	100
37.6930000000	99
37.7230000000	128
37.7530000000	148
37.7830000000	132
37.8130000000	180
37.8430000000	210
37.8730000000	285
37.9030000000	426
37.9330000000	597
37.9630000000	983
37.9930000000	1514
38.0230000000	2025
38.0530000000	2633
38.0830000000	2871
38.1130000000	2607
38.1430000000	2091
38.1730000000	1545
38.2030000000	1069
38.2330000000	671
38.2630000000	415
38.2930000000	289
38.3230000000	213
38.3530000000	162
38.3830000000	146
38.4130000000	134
38.4430000000	126
38.4730000000	122
38.5030000000	119
38.5330000000	117
38.5630000000	106
38.5930000000	116
38.6230000000	106
38.6530000000	118
38.6830000000	114
38.7130000000	97
38.7430000000	103
38.7730000000	94
38.8030000000	91
38.8330000000	108
38.8630000000	103
38.8930000000	97
38.9230000000	94
38.9530000000	85
38.9830000000	94
39.0130000000	93
39.0430000000	92
39.0730000000	104
39.1030000000	104
39.1330000000	89
39.1630000000	92
39.1930000000	85
39.2230000000	88
39.2530000000	97
39.2830000000	100
39.3130000000	92
39.3430000000	69
39.3730000000	86
39.4030000000	81
39.4330000000	82
39.4630000000	77
39.4930000000	88
39.5230000000	93
39.5530000000	79
39.5830000000	76
39.6130000000	81
39.6430000000	76
39.6730000000	88
39.7030000000	82
39.7330000000	81
39.7630000000	74
39.7930000000	83
39.8230000000	85
39.8530000000	72
39.8830000000	81
39.9130000000	86
39.9430000000	75
39.9730000000	91
40.0030000000	83
40.0330000000	72
40.0630000000	69
40.0930000000	74
40.1230000000	77
40.1530000000	78
40.1830000000	79
40.2130000000	84
40.2430000000	93
40.2730000000	74
40.3030000000	85
40.3330000000	76
40.3630000000	76
40.3930000000	76
40.4230000000	70
40.4530000000	82
40.4830000000	71
40.5130000000	81
40.5430000000	82
40.5730000000	86
40.6030000000	99
40.6330000000	68
40.6630000000	90
40.6930000000	101
40.7230000000	67
40.7530000000	84
40.7830000000	93
40.8130000000	78
40.8430000000	78
40.8730000000	61
40.9030000000	88
40.9330000000	93
40.9630000000	70
40.9930000000	62
41.0230000000	93
41.0530000000	82
41.0830000000	106
41.1130000000	73
41.1430000000	78
41.1730000000	84
41.2030000000	77
41.2330000000	96
41.2630000000	92
41.2930000000	86
41.3230000000	74
41.3530000000	81
41.3830000000	78
41.4130000000	94
41.4430000000	74
41.4730000000	86
41.5030000000	84
41.5330000000	93
41.5630000000	83
41.5930000000	75
41.6230000000	80
41.6530000000	85
41.6830000000	74
41.7130000000	91
41.7430000000	91
41.7730000000	86
41.8030000000	83
41.8330000000	87
41.8630000000	83
41.8930000000	90
41.9230000000	80
41.9530000000	100
41.9830000000	127
42.0130000000	136
42.0430000000	151
42.0730000000	201
42.1030000000	240
42.1330000000	288
42.1630000000	297
42.1930000000	287
42.2230000000	254
42.2530000000	193
42.2830000000	170
42.3130000000	120
42.3430000000	92
42.3730000000	108
42.4030000000	102
42.4330000000	90
42.4630000000	103
42.4930000000	104
42.5230000000	88
42.5530000000	88
42.5830000000	87
42.6130000000	81
42.6430000000	76
42.6730000000	82
42.7030000000	86
42.7330000000	82
42.7630000000	79
42.7930000000	70
42.8230000000	72
42.8530000000	77
42.8830000000	78
42.9130000000	69
42.9430000000	92
42.9730000000	87
43.0030000000	63
43.0330000000	78
43.0630000000	82
43.0930000000	71
43.1230000000	73
43.1530000000	70
43.1830000000	81
43.2130000000	83
43.2430000000	89
43.2730000000	76
43.3030000000	76
43.3330000000	76
43.3630000000	58
43.3930000000	63
43.4230000000	87
43.4530000000	73
43.4830000000	75
43.5130000000	84
43.5430000000	77
43.5730000000	69
43.6030000000	88
43.6330000000	77
43.6630000000	105
43.6930000000	122
43.7230000000	154
43.7530000000	208
43.7830000000	231
43.8130000000	234
43.8430000000	239
43.8730000000	234
43.9030000000	185
43.9330000000	152
43.9630000000	121
43.9930000000	104
44.0230000000	80
44.0530000000	87
44.0830000000	72
44.1130000000	74
44.1430000000	62
44.1730000000	63
44.2030000000	83
44.2330000000	73
44.2630000000	68
44.2930000000	81
44.3230000000	77
44.3530000000	62
44.3830000000	55
44.4130000000	65
44.4430000000	73
44.4730000000	64
44.5030000000	67
44.5330000000	76
44.5630000000	71
44.5930000000	71
44.6230000000	68
44.6530000000	71
44.6830000000	75
44.7130000000	65
44.7430000000	76
44.7730000000	70
44.8030000000	68
44.8330000000	74
44.8630000000	89
44.8930000000	66
44.9230000000	82
44.9530000000	74
44.9830000000	63
45.0130000000	66
45.0430000000	78
45.0730000000	62
45.1030000000	68
45.1330000000	60
45.1630000000	71
45.1930000000	72
45.2230000000	69
45.2530000000	63
45.2830000000	71
45.3130000000	48
45.3430000000	63
45.3730000000	79
45.4030000000	63
45.4330000000	61
45.4630000000	71
45.4930000000	77
45.5230000000	61
45.5530000000	66
45.5830000000	75
45.6130000000	73
45.6430000000	72
45.6730000000	69
45.7030000000	62
45.7330000000	57
45.7630000000	62
45.7930000000	70
45.8230000000	74
45.8530000000	69
45.8830000000	67
45.9130000000	65
45.9430000000	65
45.9730000000	63
46.0030000000	72
46.0330000000	59
46.0630000000	72
46.0930000000	79
46.1230000000	69
46.1530000000	68
46.1830000000	63
46.2130000000	79
46.2430000000	107
46.2730000000	109
46.3030000000	104
46.3330000000	153
46.3630000000	186
46.3930000000	276
46.4230000000	375
46.4530000000	532
46.4830000000	690
46.5130000000	788
46.5430000000	827
46.5730000000	767
46.6030000000	687
46.6330000000	597
46.6630000000	533
46.6930000000	497
46.7230000000	493
46.7530000000	519
46.7830000000	628
46.8130000000	672
46.8430000000	669
46.8730000000	540
46.9030000000	389
46.9330000000	377
46.9630000000	270
46.9930000000	189
47.0230000000	147
47.0530000000	109
47.0830000000	77
47.1130000000	90
47.1430000000	74
47.1730000000	77
47.2030000000	61
47.2330000000	85
47.2630000000	68
47.2930000000	74
47.3230000000	67
47.3530000000	51
47.3830000000	79
47.4130000000	70
47.4430000000	66
47.4730000000	59
47.5030000000	61
47.5330000000	74
47.5630000000	72
47.5930000000	79
47.6230000000	62
47.6530000000	61
47.6830000000	60
47.7130000000	53
47.7430000000	62
47.7730000000	73
47.8030000000	47
47.8330000000	57
47.8630000000	53
47.8930000000	63
47.9230000000	69
47.9530000000	66
47.9830000000	57
48.0130000000	58
48.0430000000	51
48.0730000000	46
48.1030000000	51
48.1330000000	56
48.1630000000	57
48.1930000000	57
48.2230000000	47
48.2530000000	58
48.2830000000	78
48.3130000000	46
48.3430000000	48
48.3730000000	45
48.4030000000	54
48.4330000000	59
48.4630000000	57
48.4930000000	52
48.5230000000	62
48.5530000000	73
48.5830000000	63
48.6130000000	56
48.6430000000	62
48.6730000000	44
48.7030000000	41
48.7330000000	57
48.7630000000	63
48.7930000000	67
48.8230000000	53
48.8530000000	56
48.8830000000	63
48.9130000000	62
48.9430000000	53
48.9730000000	47
49.0030000000	47
49.0330000000	43
49.0630000000	49
49.0930000000	44
49.1230000000	55
49.1530000000	56
49.1830000000	59
49.2130000000	53
49.2430000000	44
49.2730000000	57
49.3030000000	51
49.3330000000	60
49.3630000000	68
49.3930000000	53
49.4230000000	53
49.4530000000	55
49.4830000000	58
49.5130000000	46
49.5430000000	56
49.5730000000	60
49.6030000000	37
49.6330000000	51
49.6630000000	63
49.6930000000	53
49.7230000000	50
49.7530000000	41
49.7830000000	49
49.8130000000	47
49.8430000000	53
49.8730000000	61
49.9030000000	57
49.9330000000	65
49.9630000000	43
49.9930000000	47
50.0230000000	52
50.0530000000	62
50.0830000000	56
50.1130000000	60
50.1430000000	55
50.1730000000	51
50.2030000000	60
50.2330000000	59
50.2630000000	62
50.2930000000	55
50.3230000000	58
50.3530000000	70
50.3830000000	58
50.4130000000	86
50.4430000000	107
50.4730000000	101
50.5030000000	120
50.5330000000	119
50.5630000000	89
50.5930000000	86
50.6230000000	91
50.6530000000	76
50.6830000000	80
50.7130000000	67
50.7430000000	65
50.7730000000	52
50.8030000000	46
50.8330000000	60
50.8630000000	58
50.8930000000	52
50.9230000000	52
50.9530000000	46
50.9830000000	47
51.0130000000	54
51.0430000000	48
51.0730000000	41
51.1030000000	41
51.1330000000	51
51.1630000000	54
51.1930000000	62
51.2230000000	59
51.2530000000	51
51.2830000000	46
51.3130000000	48
51.3430000000	48
51.3730000000	46
51.4030000000	52
51.4330000000	52
51.4630000000	53
51.4930000000	50
51.5230000000	60
51.5530000000	56
51.5830000000	54
51.6130000000	45
51.6430000000	39
51.6730000000	40
51.7030000000	43
51.7330000000	47
51.7630000000	43
51.7930000000	43
51.8230000000	45
51.8530000000	54
51.8830000000	49
51.9130000000	30
51.9430000000	44
51.9730000000	44
52.0030000000	48
52.0330000000	50
52.0630000000	61
52.0930000000	52
52.1230000000	44
52.1530000000	53
52.1830000000	51
52.2130000000	53
52.2430000000	43
52.2730000000	40
52.3030000000	48
52.3330000000	45
52.3630000000	43
52.3930000000	44
52.4230000000	50
52.4530000000	57
52.4830000000	61
52.5130000000	51
52.5430000000	64
52.5730000000	49
52.6030000000	52
52.6330000000	39
52.6630000000	50
52.6930000000	49
52.7230000000	57
52.7530000000	60
52.7830000000	52
52.8130000000	45
52.8430000000	58
52.8730000000	41
52.9030000000	49
52.9330000000	52
52.9630000000	47
52.9930000000	48
53.0230000000	34
53.0530000000	48
53.0830000000	51
53.1130000000	55
53.1430000000	49
53.1730000000	47
53.2030000000	52
53.2330000000	55
53.2630000000	44
53.2930000000	56
53.3230000000	53
53.3530000000	52
53.3830000000	62
53.4130000000	66
53.4430000000	79
53.4730000000	101
53.5030000000	105
53.5330000000	104
53.5630000000	118
53.5930000000	108
53.6230000000	94
53.6530000000	93
53.6830000000	75
53.7130000000	71
53.7430000000	71
53.7730000000	62
53.8030000000	53
53.8330000000	49
53.8630000000	62
53.8930000000	53
53.9230000000	30
53.9530000000	44
53.9830000000	49
54.0130000000	40
54.0430000000	34
54.0730000000	45
54.1030000000	41
54.1330000000	43
54.1630000000	48
54.1930000000	59
54.2230000000	46
54.2530000000	53
54.2830000000	48
54.3130000000	40
54.3430000000	42
54.3730000000	37
54.4030000000	61
54.4330000000	60
54.4630000000	53
54.4930000000	44
54.5230000000	50
54.5530000000	41
54.5830000000	46
54.6130000000	38
54.6430000000	40
54.6730000000	43
54.7030000000	37
54.7330000000	46
54.7630000000	37
54.7930000000	49
54.8230000000	45
54.8530000000	41
54.8830000000	53
54.9130000000	39
54.9430000000	48
54.9730000000	51
55.0030000000	52
55.0330000000	46
55.0630000000	58
55.0930000000	39
55.1230000000	65
55.1530000000	42
55.1830000000	56
55.2130000000	54
55.2430000000	43
55.2730000000	57
55.3030000000	57
55.3330000000	46
55.3630000000	49
55.3930000000	47
55.4230000000	52
55.4530000000	56
55.4830000000	42
55.5130000000	49
55.5430000000	51
55.5730000000	50
55.6030000000	43
55.6330000000	53
55.6630000000	41
55.6930000000	47
55.7230000000	48
55.7530000000	47
55.7830000000	49
55.8130000000	49
55.8430000000	48
55.8730000000	45
55.9030000000	46
55.9330000000	49
55.9630000000	47
55.9930000000	52
56.0230000000	50
56.0530000000	30
56.0830000000	50
56.1130000000	40
56.1430000000	40
56.1730000000	35
56.2030000000	46
56.2330000000	48
56.2630000000	41
56.2930000000	45
56.3230000000	40
56.3530000000	32
56.3830000000	56
56.4130000000	45
56.4430000000	44
56.4730000000	47
56.5030000000	38
56.5330000000	31
56.5630000000	37
56.5930000000	36
56.6230000000	42
56.6530000000	44
56.6830000000	51
56.7130000000	38
56.7430000000	41
56.7730000000	31
56.8030000000	40
56.8330000000	50
56.8630000000	51
56.8930000000	45
56.9230000000	49
56.9530000000	42
56.9830000000	43
57.0130000000	45
57.0430000000	44
57.0730000000	54
57.1030000000	46
57.1330000000	57
57.1630000000	47
57.1930000000	45
57.2230000000	42
57.2530000000	45
57.2830000000	43
57.3130000000	34
57.3430000000	45
57.3730000000	38
57.4030000000	44
57.4330000000	39
57.4630000000	48
57.4930000000	40
57.5230000000	51
57.5530000000	49
57.5830000000	44
57.6130000000	51
57.6430000000	48
57.6730000000	46
57.7030000000	45
57.7330000000	42
57.7630000000	37
57.7930000000	54
57.8230000000	42
57.8530000000	42
57.8830000000	47
57.9130000000	48
57.9430000000	38
57.9730000000	58
58.0030000000	49
58.0330000000	74
58.0630000000	76
58.0930000000	82
58.1230000000	96
58.1530000000	77
58.1830000000	83
58.2130000000	71
58.2430000000	69
58.2730000000	78
58.3030000000	61
58.3330000000	54
58.3630000000	57
58.3930000000	53
58.4230000000	46
58.4530000000	55
58.4830000000	34
58.5130000000	59
58.5430000000	46
58.5730000000	49
58.6030000000	51
58.6330000000	33
58.6630000000	40
58.6930000000	59
58.7230000000	31
58.7530000000	39
58.7830000000	38
58.8130000000	40
58.8430000000	45
58.8730000000	47
58.9030000000	47
58.9330000000	46
58.9630000000	41
58.9930000000	45
59.0230000000	60
59.0530000000	54
59.0830000000	70
59.1130000000	82
59.1430000000	73
59.1730000000	71
59.2030000000	66
59.2330000000	70
59.2630000000	74
59.2930000000	56
59.3230000000	61
59.3530000000	49
59.3830000000	49
59.4130000000	46
59.4430000000	43
59.4730000000	49
59.5030000000	39
59.5330000000	46
59.5630000000	45
59.5930000000	50
59.6230000000	50
59.6530000000	58
59.6830000000	40
59.7130000000	41
59.7430000000	40
59.7730000000	50
59.8030000000	44
59.8330000000	56
59.8630000000	73
59.8930000000	79
59.9230000000	98
59.9530000000	100
59.9830000000	115
60.0130000000	115
60.0430000000	81
60.0730000000	99
60.1030000000	102
60.1330000000	76
60.1630000000	80
60.1930000000	78
60.2230000000	69
60.2530000000	46
60.2830000000	53
60.3130000000	30
60.3430000000	51
60.3730000000	52
60.4030000000	57
60.4330000000	47
60.4630000000	48
60.4930000000	63
60.5230000000	69
60.5530000000	58
60.5830000000	54
60.6130000000	42
60.6430000000	44
60.6730000000	47
60.7030000000	40
60.7330000000	40
60.7630000000	44
60.7930000000	36
60.8230000000	34
60.8530000000	45
60.8830000000	40
60.9130000000	55
60.9430000000	46
60.9730000000	46
61.0030000000	43
61.0330000000	41
61.0630000000	44
61.0930000000	46
61.1230000000	51
61.1530000000	39
61.1830000000	28
61.2130000000	56
61.2430000000	36
61.2730000000	36
61.3030000000	37
61.3330000000	35
61.3630000000	44
61.3930000000	47
61.4230000000	31
61.4530000000	37
61.4830000000	38
61.5130000000	48
61.5430000000	46
61.5730000000	49
61.6030000000	41
61.6330000000	39
61.6630000000	55
61.6930000000	55
61.7230000000	74
61.7530000000	66
61.7830000000	57
61.8130000000	71
61.8430000000	59
61.8730000000	48
61.9030000000	53
61.9330000000	55
61.9630000000	55
61.9930000000	51
62.0230000000	37
62.0530000000	46
62.0830000000	50
62.1130000000	34
62.1430000000	36
62.1730000000	51
62.2030000000	42
62.2330000000	37
62.2630000000	43
62.2930000000	32
62.3230000000	41
62.3530000000	46
62.3830000000	38
62.4130000000	37
62.4430000000	30
62.4730000000	40
62.5030000000	42
62.5330000000	39
62.5630000000	47
62.5930000000	53
62.6230000000	42
62.6530000000	44
62.6830000000	47
62.7130000000	43
62.7430000000	39
62.7730000000	39
62.8030000000	44
62.8330000000	36
62.8630000000	33
62.8930000000	57
62.9230000000	44
62.9530000000	36
62.9830000000	44
63.0130000000	47
63.0430000000	34
63.0730000000	32
63.1030000000	39
63.1330000000	45
63.1630000000	44
63.1930000000	41
63.2230000000	43
63.2530000000	46
63.2830000000	46
63.3130000000	39
63.3430000000	35
63.3730000000	37
63.4030000000	35
63.4330000000	36
63.4630000000	39
63.4930000000	42
63.5230000000	50
63.5530000000	44
63.5830000000	35
63.6130000000	37
63.6430000000	33
63.6730000000	39
63.7030000000	29
63.7330000000	45
63.7630000000	35
63.7930000000	43
63.8230000000	38
63.8530000000	34
63.8830000000	32
63.9130000000	32
63.9430000000	34
63.9730000000	42
64.0030000000	43
64.0330000000	39
64.0630000000	38
64.0930000000	35
64.1230000000	33
64.1530000000	48
64.1830000000	33
64.2130000000	43
64.2430000000	46
64.2730000000	33
64.3030000000	44
64.3330000000	48
64.3630000000	39
64.3930000000	41
64.4230000000	40
64.4530000000	41
64.4830000000	46
64.5130000000	39
64.5430000000	43
64.5730000000	37
64.6030000000	46
64.6330000000	47
64.6630000000	44
64.6930000000	35
64.7230000000	40
64.7530000000	51
64.7830000000	55
64.8130000000	51
64.8430000000	40
64.8730000000	21
64.9030000000	34
64.9330000000	40
64.9630000000	28
64.9930000000	38
65.0230000000	42
65.0530000000	30
65.0830000000	41
65.1130000000	42
65.1430000000	46
65.1730000000	41
65.2030000000	29
65.2330000000	35
65.2630000000	42
65.2930000000	44
65.3230000000	50
65.3530000000	34
65.3830000000	52
65.4130000000	49
65.4430000000	42
65.4730000000	31
65.5030000000	42
65.5330000000	38
65.5630000000	54
65.5930000000	40
65.6230000000	38
65.6530000000	43
65.6830000000	52
65.7130000000	46
65.7430000000	75
65.7730000000	76
65.8030000000	107
65.8330000000	132
65.8630000000	127
65.8930000000	105
65.9230000000	117
65.9530000000	112
65.9830000000	126
66.0130000000	120
66.0430000000	84
66.0730000000	99
66.1030000000	98
66.1330000000	84
66.1630000000	61
66.1930000000	65
66.2230000000	63
66.2530000000	42
66.2830000000	38
66.3130000000	37
66.3430000000	53
66.3730000000	38
66.4030000000	33
66.4330000000	46
66.4630000000	47
66.4930000000	40
66.5230000000	41
66.5530000000	48
66.5830000000	36
66.6130000000	20
66.6430000000	35
66.6730000000	40
66.7030000000	35
66.7330000000	39
66.7630000000	56
66.7930000000	42
66.8230000000	45
66.8530000000	41
66.8830000000	47
66.9130000000	45
66.9430000000	35
66.9730000000	41
67.0030000000	31
67.0330000000	47
67.0630000000	46
67.0930000000	46
67.1230000000	51
67.1530000000	43
67.1830000000	46
67.2130000000	46
67.2430000000	29
67.2730000000	49
67.3030000000	46
67.3330000000	36
67.3630000000	43
67.3930000000	38
67.4230000000	47
67.4530000000	44
67.4830000000	33
67.5130000000	35
67.5430000000	32
67.5730000000	43
67.6030000000	48
67.6330000000	37
67.6630000000	34
67.6930000000	38
67.7230000000	42
67.7530000000	42
67.7830000000	40
67.8130000000	43
67.8430000000	37
67.8730000000	29
67.9030000000	41
67.9330000000	40
67.9630000000	42
67.9930000000	38
68.0230000000	37
68.0530000000	43
68.0830000000	53
68.1130000000	43
68.1430000000	47
68.1730000000	40
68.2030000000	38
68.2330000000	40
68.2630000000	45
68.2930000000	39
68.3230000000	44
68.3530000000	37
68.3830000000	31
68.4130000000	54
68.4430000000	43
68.4730000000	43
68.5030000000	42
68.5330000000	40
68.5630000000	26
68.5930000000	54
68.6230000000	35
68.6530000000	31
68.6830000000	56
68.7130000000	38
68.7430000000	52
68.7730000000	60
68.8030000000	71
68.8330000000	101
68.8630000000	98
68.8930000000	96
68.9230000000	63
68.9530000000	65
68.9830000000	67
69.0130000000	78
69.0430000000	71
69.0730000000	84
69.1030000000	87
69.1330000000	83
69.1630000000	94
69.1930000000	84
69.2230000000	76
69.2530000000	67
69.2830000000	71
69.3130000000	56
69.3430000000	50
69.3730000000	61
69.4030000000	49
69.4330000000	49
69.4630000000	41
69.4930000000	40
69.5230000000	48
69.5530000000	42
69.5830000000	47
69.6130000000	54
69.6430000000	40
69.6730000000	36
69.7030000000	43
69.7330000000	34
69.7630000000	42
69.7930000000	38
69.8230000000	43
69.8530000000	31
69.8830000000	38
69.9130000000	36
69.9430000000	43
69.9730000000	31
70.0030000000	37
70.0330000000	36
70.0630000000	46
70.0930000000	39
70.1230000000	34
70.1530000000	40
70.1830000000	37
70.2130000000	27
70.2430000000	33
70.2730000000	41
70.3030000000	31
70.3330000000	42
70.3630000000	33
70.3930000000	45
70.4230000000	38
70.4530000000	45
70.4830000000	51
70.5130000000	48
70.5430000000	36
70.5730000000	36
70.6030000000	34
70.6330000000	44
70.6630000000	34
70.6930000000	29
70.7230000000	48
70.7530000000	43
70.7830000000	33
70.8130000000	41
70.8430000000	51
70.8730000000	42
70.9030000000	45
70.9330000000	45
70.9630000000	39
70.9930000000	35
71.0230000000	41
71.0530000000	36
71.0830000000	32
71.1130000000	31
71.1430000000	32
71.1730000000	37
71.2030000000	40
71.2330000000	44
71.2630000000	46
71.2930000000	34
71.3230000000	38
71.3530000000	32
71.3830000000	24
71.4130000000	27
71.4430000000	38
71.4730000000	41
71.5030000000	32
71.5330000000	42
71.5630000000	33
71.5930000000	35
71.6230000000	36
71.6530000000	33
71.6830000000	39
71.7130000000	35
71.7430000000	41
71.7730000000	43
71.8030000000	34
71.8330000000	33
71.8630000000	40
71.8930000000	40
71.9230000000	46
71.9530000000	50
71.9830000000	29
72.0130000000	53
72.0430000000	52
72.0730000000	36
72.1030000000	45
72.1330000000	45
72.1630000000	44
72.1930000000	59
72.2230000000	68
72.2530000000	67
72.2830000000	72
72.3130000000	63
72.3430000000	76
72.3730000000	57
72.4030000000	67
72.4330000000	60
72.4630000000	83
72.4930000000	63
72.5230000000	54
72.5530000000	43
72.5830000000	52
72.6130000000	39
72.6430000000	40
72.6730000000	42
72.7030000000	42
72.7330000000	46
72.7630000000	32
72.7930000000	43
72.8230000000	48
72.8530000000	41
72.8830000000	39
72.9130000000	52
72.9430000000	35
72.9730000000	38
73.0030000000	43
73.0330000000	35
73.0630000000	47
73.0930000000	42
73.1230000000	44
73.1530000000	44
73.1830000000	48
73.2130000000	59
73.2430000000	78
73.2730000000	89
73.3030000000	98
73.3330000000	78
73.3630000000	81
73.3930000000	71
73.4230000000	60
73.4530000000	57
73.4830000000	60
73.5130000000	69
73.5430000000	63
73.5730000000	56
73.6030000000	53
73.6330000000	47
73.6630000000	44
73.6930000000	44
73.7230000000	38
73.7530000000	36
73.7830000000	51
73.8130000000	42
73.8430000000	33
73.8730000000	46
73.9030000000	52
73.9330000000	47
73.9630000000	32
73.9930000000	35
74.0230000000	30
74.0530000000	45
74.0830000000	35
74.1130000000	36
74.1430000000	45
74.1730000000	33
74.2030000000	42
74.2330000000	29
74.2630000000	41
74.2930000000	46
74.3230000000	57
74.3530000000	43
74.3830000000	29
74.4130000000	61
74.4430000000	40
74.4730000000	40
74.5030000000	47
74.5330000000	42
74.5630000000	42
74.5930000000	55
74.6230000000	56
74.6530000000	59
74.6830000000	65
74.7130000000	69
74.7430000000	79
74.7730000000	91
74.8030000000	90
74.8330000000	93
74.8630000000	74
74.8930000000	81
74.9230000000	92
74.9530000000	88
74.9830000000	95
75.0130000000	81
75.0430000000	93
75.0730000000	67
75.1030000000	71
75.1330000000	59
75.1630000000	55
75.1930000000	65
75.2230000000	54
75.2530000000	50
75.2830000000	52
75.3130000000	56
75.3430000000	45
75.3730000000	42
75.4030000000	43
75.4330000000	42
75.4630000000	44
75.4930000000	48
75.5230000000	50
75.5530000000	47
75.5830000000	50
75.6130000000	46
75.6430000000	47
75.6730000000	63
75.7030000000	38
75.7330000000	43
75.7630000000	50
75.7930000000	41
75.8230000000	49
75.8530000000	33
75.8830000000	40
75.9130000000	45
75.9430000000	51
75.9730000000	35
76.0030000000	36
76.0330000000	37
76.0630000000	36
76.0930000000	37
76.1230000000	35
76.1530000000	42
76.1830000000	60
76.2130000000	41
76.2430000000	46
76.2730000000	40
76.3030000000	32
76.3330000000	37
76.3630000000	43
76.3930000000	45
76.4230000000	40
76.4530000000	40
76.4830000000	46
76.5130000000	43
76.5430000000	45
76.5730000000	44
76.6030000000	42
76.6330000000	33
76.6630000000	37
76.6930000000	46
76.7230000000	23
76.7530000000	55
76.7830000000	51
76.8130000000	46
76.8430000000	57
76.8730000000	62
76.9030000000	43
76.9330000000	66
76.9630000000	38
76.9930000000	54
77.0230000000	46
77.0530000000	40
77.0830000000	53
77.1130000000	42
77.1430000000	43
77.1730000000	42
77.2030000000	40
77.2330000000	43
77.2630000000	38
77.2930000000	44
77.3230000000	34
77.3530000000	41
77.3830000000	35
77.4130000000	44
77.4430000000	49
77.4730000000	55
77.5030000000	52
77.5330000000	60
77.5630000000	70
77.5930000000	55
77.6230000000	55
77.6530000000	46
77.6830000000	50
77.7130000000	48
77.7430000000	49
77.7730000000	46
77.8030000000	38
77.8330000000	58
77.8630000000	44
77.8930000000	33
77.9230000000	48
77.9530000000	35
77.9830000000	34
78.0130000000	42
78.0430000000	33
78.0730000000	37
78.1030000000	52
78.1330000000	33
78.1630000000	39
78.1930000000	31
78.2230000000	34
78.2530000000	49
78.2830000000	35
78.3130000000	40
78.3430000000	29
78.3730000000	40
78.4030000000	48
78.4330000000	41
78.4630000000	44
78.4930000000	39
78.5230000000	31
78.5530000000	40
78.5830000000	47
78.6130000000	39
78.6430000000	41
78.6730000000	31
78.7030000000	33
78.7330000000	33
78.7630000000	36
78.7930000000	26
78.8230000000	36
78.8530000000	34
78.8830000000	43
78.9130000000	41
78.9430000000	39
78.9730000000	39
79.0030000000	42
79.0330000000	49
79.0630000000	35
79.0930000000	45
79.1230000000	35
79.1530000000	40
79.1830000000	34
79.2130000000	36
79.2430000000	48
79.2730000000	39
79.3030000000	50
79.3330000000	26
79.3630000000	47
79.3930000000	36
79.4230000000	33
79.4530000000	43
79.4830000000	42
79.5130000000	32
79.5430000000	23
79.5730000000	47
79.6030000000	42
79.6330000000	30
79.6630000000	39
79.6930000000	44
79.7230000000	41
79.7530000000	47
79.7830000000	37
79.8130000000	32
79.8430000000	39
79.8730000000	42
79.9030000000	37
79.9330000000	23
79.9630000000	32
79.9930000000	35
80.0230000000	40
80.0530000000	36
80.0830000000	29
80.1130000000	34
80.1430000000	28
80.1730000000	41
80.2030000000	37
80.2330000000	35
80.2630000000	33
80.2930000000	31
80.3230000000	38
80.3530000000	38
80.3830000000	35
80.4130000000	38
80.4430000000	37
80.4730000000	38
80.5030000000	40
80.5330000000	46
80.5630000000	38
80.5930000000	28
80.6230000000	45
80.6530000000	26
80.6830000000	40
80.7130000000	54
80.7430000000	39
80.7730000000	48
80.8030000000	45
80.8330000000	44
80.8630000000	34
80.8930000000	33
80.9230000000	31
80.9530000000	40
80.9830000000	41
81.0130000000	42
81.0430000000	45
81.0730000000	33
81.1030000000	43
81.1330000000	31
81.1630000000	39
81.1930000000	53
81.2230000000	44
81.2530000000	47
81.2830000000	64
81.3130000000	60
81.3430000000	71
81.3730000000	69
81.4030000000	75
81.4330000000	92
81.4630000000	80
81.4930000000	69
81.5230000000	83
81.5530000000	67
81.5830000000	69
81.6130000000	64
81.6430000000	55
81.6730000000	75
81.7030000000	50
81.7330000000	58
81.7630000000	49
81.7930000000	51
81.8230000000	37
81.8530000000	48
81.8830000000	45
81.9130000000	33
81.9430000000	51
81.9730000000	38
82.0030000000	29
82.0330000000	45
82.0630000000	43
82.0930000000	28
82.1230000000	38
82.1530000000	42
82.1830000000	30
82.2130000000	45
82.2430000000	40
82.2730000000	37
82.3030000000	36
82.3330000000	40
82.3630000000	37
82.3930000000	41
82.4230000000	36
82.4530000000	41
82.4830000000	40
82.5130000000	42
82.5430000000	52
82.5730000000	42
82.6030000000	35
82.6330000000	44
82.6630000000	35
82.6930000000	43
82.7230000000	38
82.7530000000	39
82.7830000000	34
82.8130000000	34
82.8430000000	34
82.8730000000	32
82.9030000000	52
82.9330000000	40
82.9630000000	40
82.9930000000	39
83.0230000000	28
83.0530000000	43
83.0830000000	28
83.1130000000	44
83.1430000000	34
83.1730000000	42
83.2030000000	42
83.2330000000	42
83.2630000000	43
83.2930000000	43
83.3230000000	31
83.3530000000	42
83.3830000000	33
83.4130000000	34
83.4430000000	52
83.4730000000	34
83.5030000000	30
83.5330000000	33
83.5630000000	39
83.5930000000	48
83.6230000000	37
83.6530000000	50
83.6830000000	43
83.7130000000	60
83.7430000000	50
83.7730000000	62
83.8030000000	64
83.8330000000	54
83.8630000000	52
83.8930000000	48
83.9230000000	44
83.9530000000	46
83.9830000000	42
84.0130000000	36
84.0430000000	29
84.0730000000	31
84.1030000000	42
84.1330000000	30
84.1630000000	42
84.1930000000	34
84.2230000000	41
84.2530000000	29
84.2830000000	34
84.3130000000	47
84.3430000000	33
84.3730000000	39
84.4030000000	38
84.4330000000	28
84.4630000000	26
84.4930000000	45
84.5230000000	40
84.5530000000	38
84.5830000000	41
84.6130000000	43
84.6430000000	43
84.6730000000	56
84.7030000000	64
84.7330000000	73
84.7630000000	76
84.7930000000	70
84.8230000000	56
84.8530000000	54
84.8830000000	56
84.9130000000	65
84.9430000000	59
84.9730000000	54
85.0030000000	55
85.0330000000	46
85.0630000000	49
85.0930000000	46
85.1230000000	50
85.1530000000	42
85.1830000000	46
85.2130000000	42
85.2430000000	38
85.2730000000	47
85.3030000000	41
85.3330000000	37
85.3630000000	32
85.3930000000	35
85.4230000000	31
85.4530000000	33
85.4830000000	42
85.5130000000	43
85.5430000000	30
85.5730000000	33
85.6030000000	43
85.6330000000	45
85.6630000000	42
85.6930000000	39
85.7230000000	45
85.7530000000	44
85.7830000000	34
85.8130000000	23
85.8430000000	41
85.8730000000	39
85.9030000000	30
85.9330000000	48
85.9630000000	50
85.9930000000	26
86.0230000000	36
86.0530000000	39
86.0830000000	38
86.1130000000	34
86.1430000000	34
86.1730000000	28
86.2030000000	41
86.2330000000	32
86.2630000000	42
86.2930000000	33
86.3230000000	33
86.3530000000	50
86.3830000000	49
86.4130000000	25
86.4430000000	34
86.4730000000	41
86.5030000000	37
86.5330000000	44
86.5630000000	36
86.5930000000	39
86.6230000000	41
86.6530000000	37
86.6830000000	45
86.7130000000	34
86.7430000000	30
86.7730000000	31
86.8030000000	47
86.8330000000	48
86.8630000000	36
86.8930000000	41
86.9230000000	32
86.9530000000	32
86.9830000000	34
87.0130000000	32
87.0430000000	41
87.0730000000	40
87.1030000000	38
87.1330000000	35
87.1630000000	38
87.1930000000	48
87.2230000000	46
87.2530000000	43
87.2830000000	38
87.3130000000	33
87.3430000000	43
87.3730000000	35
87.4030000000	41
87.4330000000	41
87.4630000000	36
87.4930000000	31
87.5230000000	41
87.5530000000	38
87.5830000000	39
87.6130000000	37
87.6430000000	41
87.6730000000	31
87.7030000000	55
87.7330000000	44
87.7630000000	40
87.7930000000	40
87.8230000000	28
87.8530000000	28
87.8830000000	34
87.9130000000	49
87.9430000000	40
87.9730000000	33
88.0030000000	38
88.0330000000	39
88.0630000000	34
88.0930000000	41
88.1230000000	45
88.1530000000	33
88.1830000000	41
88.2130000000	33
88.2430000000	36
88.2730000000	36
88.3030000000	36
88.3330000000	35
88.3630000000	30
88.3930000000	34
88.4230000000	31
88.4530000000	34
88.4830000000	38
88.5130000000	33
88.5430000000	37
88.5730000000	32
88.6030000000	32
88.6330000000	29
88.6630000000	24
88.6930000000	31
88.7230000000	32
88.7530000000	46
88.7830000000	34
88.8130000000	52
88.8430000000	25
88.8730000000	46
88.9030000000	53
88.9330000000	37
88.9630000000	39
88.9930000000	33
89.0230000000	45
89.0530000000	50
89.0830000000	40
89.1130000000	46
89.1430000000	46
89.1730000000	44
89.2030000000	52
89.2330000000	54
89.2630000000	47
89.2930000000	39
89.3230000000	50
89.3530000000	40
89.3830000000	51
89.4130000000	48
89.4430000000	42
89.4730000000	50
89.5030000000	45
89.5330000000	42
89.5630000000	41
89.5930000000	42
89.6230000000	42
89.6530000000	31
89.6830000000	36
89.7130000000	49
89.7430000000	48
89.7730000000	48
89.8030000000	50
89.8330000000	49
89.8630000000	45
89.8930000000	39
89.9230000000	42
89.9530000000	38
89.9830000000	41
90.0130000000	47
90.0430000000	32
90.0730000000	41
90.1030000000	36
90.1330000000	42
90.1630000000	39
90.1930000000	42
90.2230000000	41
90.2530000000	27
90.2830000000	36
90.3130000000	52
90.3430000000	39
90.3730000000	30
90.4030000000	39
90.4330000000	53
90.4630000000	36
90.4930000000	35
90.5230000000	40
90.5530000000	36
90.5830000000	43
90.6130000000	37
90.6430000000	41
90.6730000000	36
90.7030000000	40
90.7330000000	39
90.7630000000	29
90.7930000000	39
90.8230000000	35
90.8530000000	43
90.8830000000	33
90.9130000000	36
90.9430000000	48
90.9730000000	47
91.0030000000	43
91.0330000000	42
91.0630000000	38
91.0930000000	35
91.1230000000	41
91.1530000000	39
91.1830000000	30
91.2130000000	36
91.2430000000	29
91.2730000000	30
91.3030000000	39
91.3330000000	41
91.3630000000	41
91.3930000000	33
91.4230000000	39
91.4530000000	38
91.4830000000	43
91.5130000000	36
91.5430000000	34
91.5730000000	38
91.6030000000	36
91.6330000000	30
91.6630000000	31
91.6930000000	37
91.7230000000	32
91.7530000000	33
91.7830000000	37
91.8130000000	42
91.8430000000	36
91.8730000000	37
91.9030000000	30
91.9330000000	33
91.9630000000	39
91.9930000000	37
92.0230000000	36
92.0530000000	37
92.0830000000	35
92.1130000000	26
92.1430000000	30
92.1730000000	30
92.2030000000	35
92.2330000000	30
92.2630000000	36
92.2930000000	42
92.3230000000	37
92.3530000000	41
92.3830000000	34
92.4130000000	42
92.4430000000	44
92.4730000000	45
92.5030000000	42
92.5330000000	39
92.5630000000	40
92.5930000000	39
92.6230000000	57
92.6530000000	39
92.6830000000	34
92.7130000000	34
92.7430000000	50
92.7730000000	33
92.8030000000	34
92.8330000000	38
92.8630000000	45
92.8930000000	37
92.9230000000	38
92.9530000000	34
92.9830000000	37
93.0130000000	53
93.0430000000	42
93.0730000000	38
93.1030000000	33
93.1330000000	36
93.1630000000	39
93.1930000000	34
93.2230000000	39
93.2530000000	37
93.2830000000	24
93.3130000000	31
93.3430000000	41
93.3730000000	37
93.4030000000	45
93.4330000000	31
93.4630000000	30
93.4930000000	38
93.5230000000	37
93.5530000000	42
93.5830000000	49
93.6130000000	31
93.6430000000	36
93.6730000000	35
93.7030000000	34
93.7330000000	33
93.7630000000	24
93.7930000000	38
93.8230000000	30
93.8530000000	35
93.8830000000	55
93.9130000000	44
93.9430000000	45
93.9730000000	44
94.0030000000	41
94.0330000000	52
94.0630000000	39
94.0930000000	44
94.1230000000	56
94.1530000000	47
94.1830000000	28
94.2130000000	33
94.2430000000	37
94.2730000000	38
94.3030000000	39
94.3330000000	40
94.3630000000	45
94.3930000000	40
94.4230000000	45
94.4530000000	55
94.4830000000	66
94.5130000000	58
94.5430000000	63
94.5730000000	59
94.6030000000	56
94.6330000000	42
94.6630000000	39
94.6930000000	54
94.7230000000	49
94.7530000000	39
94.7830000000	52
94.8130000000	51
94.8430000000	38
94.8730000000	41
94.9030000000	47
94.9330000000	34
94.9630000000	40
94.9930000000	43
95.0230000000	34
95.0530000000	44
95.0830000000	43
95.1130000000	42
95.1430000000	44
95.1730000000	42
95.2030000000	29
95.2330000000	43
95.2630000000	49
95.2930000000	43
95.3230000000	38
95.3530000000	30
95.3830000000	46
95.4130000000	32
95.4430000000	35
95.4730000000	37
95.5030000000	35
95.5330000000	44
95.5630000000	55
95.5930000000	47
95.6230000000	35
95.6530000000	31
95.6830000000	42
95.7130000000	48
95.7430000000	43
95.7730000000	36
95.8030000000	44
95.8330000000	45
95.8630000000	38
95.8930000000	39
95.9230000000	42
95.9530000000	33
95.9830000000	39
96.0130000000	37
96.0430000000	36
96.0730000000	38
96.1030000000	42
96.1330000000	54
96.1630000000	32
96.1930000000	33
96.2230000000	32
96.2530000000	38
96.2830000000	30
96.3130000000	41
96.3430000000	39
96.3730000000	32
96.4030000000	37
96.4330000000	30
96.4630000000	30
96.4930000000	35
96.5230000000	44
96.5530000000	34
96.5830000000	43
96.6130000000	43
96.6430000000	50
96.6730000000	33
96.7030000000	33
96.7330000000	39
96.7630000000	39
96.7930000000	42
96.8230000000	34
96.8530000000	38
96.8830000000	45
96.9130000000	46
96.9430000000	36
96.9730000000	43
97.0030000000	39
97.0330000000	46
97.0630000000	44
97.0930000000	53
97.1230000000	33
97.1530000000	39
97.1830000000	39
97.2130000000	38
97.2430000000	40
97.2730000000	37
97.3030000000	36
97.3330000000	25
97.3630000000	38
97.3930000000	45
97.4230000000	33
97.4530000000	39
97.4830000000	53
97.5130000000	32
97.5430000000	40
97.5730000000	31
97.6030000000	38
97.6330000000	41
97.6630000000	41
97.6930000000	30
97.7230000000	33
97.7530000000	44
97.7830000000	40
97.8130000000	39
97.8430000000	35
97.8730000000	38
97.9030000000	28
97.9330000000	37
97.9630000000	35
97.9930000000	42
98.0230000000	29
98.0530000000	46
98.0830000000	42
98.1130000000	29
98.1430000000	37
98.1730000000	38
98.2030000000	39
98.2330000000	29
98.2630000000	41
98.2930000000	33
98.3230000000	31
98.3530000000	40
98.3830000000	40
98.4130000000	33
98.4430000000	30
98.4730000000	38
98.5030000000	48
98.5330000000	47
98.5630000000	38
98.5930000000	37
98.6230000000	38
98.6530000000	40
98.6830000000	42
98.7130000000	45
98.7430000000	49
98.7730000000	36
98.8030000000	36
98.8330000000	48
98.8630000000	34
98.8930000000	43
98.9230000000	56
98.9530000000	36
98.9830000000	39
99.0130000000	47
99.0430000000	44
99.0730000000	48
99.1030000000	38
99.1330000000	36
99.1630000000	30
99.1930000000	37
99.2230000000	44
99.2530000000	36
99.2830000000	33
99.3130000000	36
99.3430000000	43
99.3730000000	44
99.4030000000	27
99.4330000000	36
99.4630000000	32
99.4930000000	30
99.5230000000	32
99.5530000000	36
99.5830000000	31
99.6130000000	28
99.6430000000	42
99.6730000000	55
99.7030000000	39
99.7330000000	37
99.7630000000	35
99.7930000000	39
99.8230000000	30
99.8530000000	32
99.8830000000	38
99.9130000000	31
99.9430000000	28
99.9730000000	31
100.0030000000	30
100.0330000000	42
100.0630000000	43
100.0930000000	37
100.1230000000	38
100.1530000000	44
100.1830000000	40
100.2130000000	34
100.2430000000	45
100.2730000000	41
100.3030000000	38
100.3330000000	48
100.3630000000	40
100.3930000000	41
100.4230000000	37
100.4530000000	30
100.4830000000	26
100.5130000000	33
100.5430000000	45
100.5730000000	36
100.6030000000	43
100.6330000000	41
100.6630000000	44
100.6930000000	46
100.7230000000	41
100.7530000000	39
100.7830000000	33
100.8130000000	32
100.8430000000	35
100.8730000000	33
100.9030000000	38
100.9330000000	25
100.9630000000	36
100.9930000000	46
101.0230000000	29
101.0530000000	26
101.0830000000	35
101.1130000000	34
101.1430000000	30
101.1730000000	40
101.2030000000	40
101.2330000000	29
101.2630000000	31
101.2930000000	42
101.3230000000	40
101.3530000000	33
101.3830000000	33
101.4130000000	37
101.4430000000	34
101.4730000000	36
101.5030000000	29
101.5330000000	29
101.5630000000	34
101.5930000000	44
101.6230000000	39
101.6530000000	25
101.6830000000	30
101.7130000000	34
101.7430000000	28
101.7730000000	37
101.8030000000	35
101.8330000000	39
101.8630000000	39
101.8930000000	28
101.9230000000	28
101.9530000000	42
101.9830000000	31
102.0130000000	33
102.0430000000	30
102.0730000000	30
102.1030000000	45
102.1330000000	30
102.1630000000	33
102.1930000000	40
102.2230000000	33
102.2530000000	32
102.2830000000	33
102.3130000000	41
102.3430000000	38
102.3730000000	31
102.4030000000	35
102.4330000000	42
102.4630000000	38
102.4930000000	33
102.5230000000	30
102.5530000000	37
102.5830000000	30
102.6130000000	32
102.6430000000	32
102.6730000000	35
102.7030000000	37
102.7330000000	47
102.7630000000	40
102.7930000000	37
102.8230000000	34
102.8530000000	31
102.8830000000	39
102.9130000000	44
102.9430000000	26
102.9730000000	31
103.0030000000	40
103.0330000000	33
103.0630000000	32
103.0930000000	40
103.1230000000	38
103.1530000000	35
103.1830000000	36
103.2130000000	33
103.2430000000	36
103.2730000000	34
103.3030000000	26
103.3330000000	37
103.3630000000	47
103.3930000000	28
103.4230000000	32
103.4530000000	35
103.4830000000	28
103.5130000000	39
103.5430000000	37
103.5730000000	42
103.6030000000	40
103.6330000000	40
103.6630000000	44
103.6930000000	36
103.7230000000	39
103.7530000000	39
103.7830000000	29
103.8130000000	46
103.8430000000	46
103.8730000000	37
103.9030000000	35
103.9330000000	37
103.9630000000	36
103.9930000000	37
104.0230000000	47
104.0530000000	39
104.0830000000	43
104.1130000000	49
104.1430000000	55
104.1730000000	44
104.2030000000	55
104.2330000000	45
104.2630000000	33
104.2930000000	43
104.3230000000	37
104.3530000000	44
104.3830000000	47
104.4130000000	38
104.4430000000	38
104.4730000000	38
104.5030000000	45
104.5330000000	27
104.5630000000	40
104.5930000000	35
104.6230000000	38
104.6530000000	27
104.6830000000	25
104.7130000000	53
104.7430000000	46
104.7730000000	30
104.8030000000	41
104.8330000000	39
104.8630000000	27
104.8930000000	31
104.9230000000	30
104.9530000000	35
104.9830000000	28
105.0130000000	38
105.0430000000	36
105.0730000000	35
105.1030000000	38
105.1330000000	43
105.1630000000	41
105.1930000000	37
105.2230000000	52
105.2530000000	35
105.2830000000	40
105.3130000000	38
105.3430000000	48
105.3730000000	48
105.4030000000	41
105.4330000000	40
105.4630000000	42
105.4930000000	44
105.5230000000	50
105.5530000000	48
105.5830000000	46
105.6130000000	54
105.6430000000	36
105.6730000000	39
105.7030000000	29
105.7330000000	45
105.7630000000	37
105.7930000000	27
105.8230000000	31
105.8530000000	39
105.8830000000	44
105.9130000000	30
105.9430000000	37
105.9730000000	44
106.0030000000	30
106.0330000000	44
106.0630000000	36
106.0930000000	30
106.1230000000	26
106.1530000000	37
106.1830000000	39
106.2130000000	43
106.2430000000	28
106.2730000000	31
106.3030000000	36
106.3330000000	36
106.3630000000	38
106.3930000000	38
106.4230000000	33
106.4530000000	39
106.4830000000	39
106.5130000000	39
106.5430000000	31
106.5730000000	42
106.6030000000	30
106.6330000000	33
106.6630000000	41
106.6930000000	27
106.7230000000	48
106.7530000000	41
106.7830000000	36
106.8130000000	41
106.8430000000	37
106.8730000000	37
106.9030000000	32
106.9330000000	30
106.9630000000	41
106.9930000000	30
107.0230000000	36
107.0530000000	37
107.0830000000	34
107.1130000000	40
107.1430000000	45
107.1730000000	37
107.2030000000	33
107.2330000000	27
107.2630000000	35
107.2930000000	33
107.3230000000	38
107.3530000000	38
107.3830000000	40
107.4130000000	38
107.4430000000	38
107.4730000000	34
107.5030000000	31
107.5330000000	40
107.5630000000	37
107.5930000000	37
107.6230000000	35
107.6530000000	26
107.6830000000	31
107.7130000000	38
107.7430000000	36
107.7730000000	26
107.8030000000	35
107.8330000000	43
107.8630000000	37
107.8930000000	42
107.9230000000	35
107.9530000000	23
107.9830000000	35
108.0130000000	49
108.0430000000	29
108.0730000000	34
108.1030000000	45
108.1330000000	42
108.1630000000	35
108.1930000000	32
108.2230000000	45
108.2530000000	52
108.2830000000	46
108.3130000000	45
108.3430000000	35
108.3730000000	36
108.4030000000	42
108.4330000000	55
108.4630000000	53
108.4930000000	50
108.5230000000	50
108.5530000000	70
108.5830000000	43
108.6130000000	43
108.6430000000	49
108.6730000000	43
108.7030000000	48
108.7330000000	33
108.7630000000	39
108.7930000000	45
108.8230000000	53
108.8530000000	47
108.8830000000	41
108.9130000000	47
108.9430000000	38
108.9730000000	53
109.0030000000	43
109.0330000000	60
109.0630000000	55
109.0930000000	64
109.1230000000	68
109.1530000000	60
109.1830000000	57
109.2130000000	37
109.2430000000	37
109.2730000000	30
109.3030000000	35
109.3330000000	35
109.3630000000	40
109.3930000000	48
109.4230000000	67
109.4530000000	44
109.4830000000	47
109.5130000000	43
109.5430000000	44
109.5730000000	48
109.6030000000	35
109.6330000000	45
109.6630000000	50
109.6930000000	34
109.7230000000	38
109.7530000000	44
109.7830000000	31
109.8130000000	35
109.8430000000	33
109.8730000000	40
109.9030000000	30
109.9330000000	45
109.9630000000	39
109.9930000000	39
110.0230000000	34
110.0530000000	35
110.0830000000	34
110.1130000000	36
110.1430000000	28
110.1730000000	43
110.2030000000	23
110.2330000000	30
110.2630000000	39
110.2930000000	33
110.3230000000	42
110.3530000000	40
110.3830000000	52
110.4130000000	35
110.4430000000	38
110.4730000000	47
110.5030000000	37
110.5330000000	42
110.5630000000	32
110.5930000000	35
110.6230000000	37
110.6530000000	38
110.6830000000	34
110.7130000000	40
110.7430000000	31
110.7730000000	34
110.8030000000	31
110.8330000000	41
110.8630000000	40
110.8930000000	38
110.9230000000	36
110.9530000000	38
110.9830000000	41
111.0130000000	35
111.0430000000	40
111.0730000000	43
111.1030000000	35
111.1330000000	41
111.1630000000	49
111.1930000000	43
111.2230000000	37
111.2530000000	40
111.2830000000	43
111.3130000000	39
111.3430000000	37
111.3730000000	27
111.4030000000	45
111.4330000000	42
111.4630000000	36
111.4930000000	47
111.5230000000	33
111.5530000000	28
111.5830000000	44
111.6130000000	43
111.6430000000	42
111.6730000000	40
111.7030000000	39
111.7330000000	29
111.7630000000	39
111.7930000000	37
111.8230000000	41
111.8530000000	37
111.8830000000	36
111.9130000000	44
111.9430000000	35
111.9730000000	36
112.0030000000	35
112.0330000000	28
112.0630000000	27
112.0930000000	33
112.1230000000	28
112.1530000000	25
112.1830000000	40
112.2130000000	41
112.2430000000	39
112.2730000000	41
112.3030000000	30
112.3330000000	42
112.3630000000	48
112.3930000000	31
112.4230000000	24
112.4530000000	35
112.4830000000	43
112.5130000000	33
112.5430000000	39
112.5730000000	39
112.6030000000	36
112.6330000000	38
112.6630000000	50
112.6930000000	43
112.7230000000	33
112.7530000000	32
112.7830000000	35
112.8130000000	38
112.8430000000	36
112.8730000000	36
112.9030000000	37
112.9330000000	34
112.9630000000	38
112.9930000000	45
113.0230000000	30
113.0530000000	40
113.0830000000	40
113.1130000000	50
113.1430000000	39
113.1730000000	45
113.2030000000	46
113.2330000000	49
113.2630000000	38
113.2930000000	32
113.3230000000	38
113.3530000000	42
113.3830000000	39
113.4130000000	34
113.4430000000	40
113.4730000000	49
113.5030000000	33
113.5330000000	32
113.5630000000	32
113.5930000000	38
113.6230000000	24
113.6530000000	44
113.6830000000	45
113.7130000000	42
113.7430000000	43
113.7730000000	30
113.8030000000	33
113.8330000000	38
113.8630000000	38
113.8930000000	32
113.9230000000	29
113.9530000000	36
113.9830000000	29
114.0130000000	42
114.0430000000	32
114.0730000000	33
114.1030000000	36
114.1330000000	40
114.1630000000	33
114.1930000000	36
114.2230000000	42
114.2530000000	44
114.2830000000	40
114.3130000000	32
114.3430000000	31
114.3730000000	29
114.4030000000	39
114.4330000000	37
114.4630000000	1
114.4930000000	1
114.5230000000	1
114.5530000000	1
114.5830000000	1
