0.3130000000	1
0.3430000000	1
0.3730000000	1
0.4030000000	1
0.4330000000	1
0.4630000000	1
0.4930000000	1
0.5230000000	1
0.5530000000	1
0.5830000000	1
0.6130000000	1
0.6430000000	1
0.6730000000	1
0.7030000000	1
0.7330000000	2
0.7630000000	1
0.7930000000	1
0.8230000000	1
0.8530000000	1
0.8830000000	1
0.9130000000	1
0.9430000000	1
0.9730000000	1
1.0030000000	2
1.0330000000	1
1.0630000000	1
1.0930000000	1
1.1230000000	2
1.1530000000	1
1.1830000000	1
1.2130000000	2
1.2430000000	1
1.2730000000	1
1.3030000000	1
1.3330000000	1
1.3630000000	1
1.3930000000	1
1.4230000000	1
1.4530000000	1
1.4830000000	1
1.5130000000	1
1.5430000000	1
1.5730000000	1
1.6030000000	1
1.6330000000	1
1.6630000000	1
1.6930000000	2
1.7230000000	1
1.7530000000	1
1.7830000000	1
1.8130000000	1
1.8430000000	1
1.8730000000	2
1.9030000000	1
1.9330000000	1
1.9630000000	2
1.9930000000	1
2.0230000000	2
2.0530000000	1
2.0830000000	1
2.1130000000	2
2.1430000000	2
2.1730000000	1
2.2030000000	2
2.2330000000	2
2.2630000000	1
2.2930000000	2
2.3230000000	2
2.3530000000	1
2.3830000000	2
2.4130000000	2
2.4430000000	1
2.4730000000	1
2.5030000000	1
2.5330000000	2
2.5630000000	3
2.5930000000	2
2.6230000000	1
2.6530000000	1
2.6830000000	2
2.7130000000	1
2.7430000000	1
2.7730000000	2
2.8030000000	1
2.8330000000	1
2.8630000000	2
2.8930000000	1
2.9230000000	2
2.9530000000	2
2.9830000000	2
3.0130000000	1
3.0430000000	1
3.0730000000	2
3.1030000000	4
3.1330000000	1
3.1630000000	2
3.1930000000	1
3.2230000000	2
3.2530000000	3
3.2830000000	1
3.3130000000	2
3.3430000000	2
3.3730000000	2
3.4030000000	2
3.4330000000	1
3.4630000000	2
3.4930000000	2
3.5230000000	4
3.5530000000	1
3.5830000000	1
3.6130000000	1
3.6430000000	1
3.6730000000	1
3.7030000000	2
3.7330000000	2
3.7630000000	1
3.7930000000	3
3.8230000000	3
3.8530000000	3
3.8830000000	1
3.9130000000	2
3.9430000000	1
3.9730000000	1
4.0030000000	4
4.0330000000	4
4.0630000000	4
4.0930000000	3
4.1230000000	2
4.1530000000	3
4.1830000000	4
4.2130000000	2
4.2430000000	3
4.2730000000	3
4.3030000000	3
4.3330000000	5
4.3630000000	7
4.3930000000	7
4.4230000000	7
4.4530000000	6
4.4830000000	17
4.5130000000	28
4.5430000000	37
4.5730000000	51
4.6030000000	69
4.6330000000	107
4.6630000000	118
4.6930000000	127
4.7230000000	130
4.7530000000	130
4.7830000000	153
4.8130000000	156
4.8430000000	145
4.8730000000	142
4.9030000000	136
4.9330000000	186
4.9630000000	142
4.9930000000	112
5.0230000000	149
5.0530000000	142
5.0830000000	154
5.1130000000	141
5.1430000000	132
5.1730000000	130
5.2030000000	130
5.2330000000	156
5.2630000000	157
5.2930000000	156
5.3230000000	159
5.3530000000	154
5.3830000000	131
5.4130000000	140
5.4430000000	153
5.4730000000	152
5.5030000000	152
5.5330000000	138
5.5630000000	155
5.5930000000	139
5.6230000000	141
5.6530000000	128
5.6830000000	152
5.7130000000	158
5.7430000000	154
5.7730000000	162
5.8030000000	154
5.8330000000	157
5.8630000000	133
5.8930000000	144
5.9230000000	156
5.9530000000	145
5.9830000000	135
6.0130000000	139
6.0430000000	152
6.0730000000	147
6.1030000000	140
6.1330000000	157
6.1630000000	142
6.1930000000	154
6.2230000000	140
6.2530000000	151
6.2830000000	152
6.3130000000	115
6.3430000000	172
6.3730000000	159
6.4030000000	145
6.4330000000	142
6.4630000000	137
6.4930000000	143
6.5230000000	155
6.5530000000	135
6.5830000000	165
6.6130000000	142
6.6430000000	129
6.6730000000	168
6.7030000000	160
6.7330000000	140
6.7630000000	154
6.7930000000	125
6.8230000000	151
6.8530000000	163
6.8830000000	158
6.9130000000	163
6.9430000000	135
6.9730000000	159
7.0030000000	139
7.0330000000	148
7.0630000000	140
7.0930000000	151
7.1230000000	142
7.1530000000	143
7.1830000000	156
7.2130000000	158
7.2430000000	137
7.2730000000	159
7.3030000000	155
7.3330000000	130
7.3630000000	147
7.3930000000	166
7.4230000000	156
7.4530000000	139
7.4830000000	135
7.5130000000	138
7.5430000000	146
7.5730000000	156
7.6030000000	156
7.6330000000	153
7.6630000000	141
7.6930000000	132
7.7230000000	154
7.7530000000	143
7.7830000000	120
7.8130000000	143
7.8430000000	139
7.8730000000	142
7.9030000000	154
7.9330000000	152
7.9630000000	139
7.9930000000	115
8.0230000000	132
8.0530000000	122
8.0830000000	160
8.1130000000	147
8.1430000000	142
8.1730000000	144
8.2030000000	157
8.2330000000	145
8.2630000000	148
8.2930000000	144
8.3230000000	147
8.3530000000	152
8.3830000000	144
8.4130000000	150
8.4430000000	136
8.4730000000	130
8.5030000000	146
8.5330000000	141
8.5630000000	146
8.5930000000	162
8.6230000000	132
8.6530000000	146
8.6830000000	139
8.7130000000	140
8.7430000000	147
8.7730000000	161
8.8030000000	151
8.8330000000	146
8.8630000000	149
8.8930000000	154
8.9230000000	128
8.9530000000	143
8.9830000000	148
9.0130000000	145
9.0430000000	153
9.0730000000	145
9.1030000000	136
9.1330000000	146
9.1630000000	157
9.1930000000	134
9.2230000000	154
9.2530000000	169
9.2830000000	129
9.3130000000	129
9.3430000000	141
9.3730000000	151
9.4030000000	128
9.4330000000	148
9.4630000000	136
9.4930000000	140
9.5230000000	153
9.5530000000	163
9.5830000000	151
9.6130000000	153
9.6430000000	155
9.6730000000	152
9.7030000000	130
9.7330000000	138
9.7630000000	164
9.7930000000	155
9.8230000000	146
9.8530000000	141
9.8830000000	126
9.9130000000	143
9.9430000000	141
9.9730000000	144
10.0030000000	167
10.0330000000	129
10.0630000000	130
10.0930000000	166
10.1230000000	134
10.1530000000	164
10.1830000000	146
10.2130000000	143
10.2430000000	135
10.2730000000	150
10.3030000000	160
10.3330000000	145
10.3630000000	149
10.3930000000	130
10.4230000000	137
10.4530000000	168
10.4830000000	136
10.5130000000	146
10.5430000000	150
10.5730000000	137
10.6030000000	158
10.6330000000	153
10.6630000000	153
10.6930000000	159
10.7230000000	163
10.7530000000	164
10.7830000000	143
10.8130000000	148
10.8430000000	151
10.8730000000	146
10.9030000000	143
10.9330000000	152
10.9630000000	150
10.9930000000	138
11.0230000000	146
11.0530000000	152
11.0830000000	166
11.1130000000	138
11.1430000000	153
11.1730000000	159
11.2030000000	146
11.2330000000	154
11.2630000000	147
11.2930000000	143
11.3230000000	153
11.3530000000	153
11.3830000000	150
11.4130000000	146
11.4430000000	158
11.4730000000	159
11.5030000000	146
11.5330000000	162
11.5630000000	161
11.5930000000	159
11.6230000000	138
11.6530000000	157
11.6830000000	134
11.7130000000	155
11.7430000000	160
11.7730000000	151
11.8030000000	127
11.8330000000	136
11.8630000000	148
11.8930000000	153
11.9230000000	147
11.9530000000	161
11.9830000000	158
12.0130000000	164
12.0430000000	143
12.0730000000	141
12.1030000000	144
12.1330000000	137
12.1630000000	157
12.1930000000	158
12.2230000000	151
12.2530000000	136
12.2830000000	141
12.3130000000	150
12.3430000000	148
12.3730000000	150
12.4030000000	141
12.4330000000	154
12.4630000000	138
12.4930000000	130
12.5230000000	168
12.5530000000	154
12.5830000000	139
12.6130000000	142
12.6430000000	149
12.6730000000	145
12.7030000000	138
12.7330000000	150
12.7630000000	164
12.7930000000	154
12.8230000000	146
12.8530000000	137
12.8830000000	127
12.9130000000	147
12.9430000000	160
12.9730000000	160
13.0030000000	143
13.0330000000	140
13.0630000000	143
13.0930000000	128
13.1230000000	144
13.1530000000	161
13.1830000000	142
13.2130000000	149
13.2430000000	141
13.2730000000	143
13.3030000000	145
13.3330000000	146
13.3630000000	147
13.3930000000	147
13.4230000000	119
13.4530000000	152
13.4830000000	142
13.5130000000	137
13.5430000000	141
13.5730000000	138
13.6030000000	120
13.6330000000	148
13.6630000000	139
13.6930000000	160
13.7230000000	155
13.7530000000	139
13.7830000000	142
13.8130000000	154
13.8430000000	145
13.8730000000	155
13.9030000000	142
13.9330000000	139
13.9630000000	143
13.9930000000	143
14.0230000000	162
14.0530000000	149
14.0830000000	166
14.1130000000	164
14.1430000000	125
14.1730000000	154
14.2030000000	124
14.2330000000	158
14.2630000000	135
14.2930000000	153
14.3230000000	156
14.3530000000	146
14.3830000000	138
14.4130000000	136
14.4430000000	152
14.4730000000	138
14.5030000000	152
14.5330000000	152
14.5630000000	155
14.5930000000	168
14.6230000000	155
14.6530000000	153
14.6830000000	146
14.7130000000	164
14.7430000000	155
14.7730000000	136
14.8030000000	166
14.8330000000	155
14.8630000000	160
14.8930000000	127
14.9230000000	149
14.9530000000	158
14.9830000000	137
15.0130000000	161
15.0430000000	142
15.0730000000	158
15.1030000000	196
15.1330000000	160
15.1630000000	158
15.1930000000	173
15.2230000000	151
15.2530000000	143
15.2830000000	164
15.3130000000	168
15.3430000000	150
15.3730000000	137
15.4030000000	125
15.4330000000	169
15.4630000000	137
15.4930000000	165
15.5230000000	146
15.5530000000	158
15.5830000000	169
15.6130000000	134
15.6430000000	137
15.6730000000	182
15.7030000000	133
15.7330000000	147
15.7630000000	157
15.7930000000	154
15.8230000000	113
15.8530000000	166
15.8830000000	126
15.9130000000	146
15.9430000000	144
15.9730000000	156
16.0030000000	157
16.0330000000	138
16.0630000000	139
16.0930000000	142
16.1230000000	152
16.1530000000	153
16.1830000000	145
16.2130000000	145
16.2430000000	143
16.2730000000	131
16.3030000000	160
16.3330000000	135
16.3630000000	138
16.3930000000	164
16.4230000000	152
16.4530000000	129
16.4830000000	158
16.5130000000	145
16.5430000000	139
16.5730000000	144
16.6030000000	130
16.6330000000	146
16.6630000000	161
16.6930000000	148
16.7230000000	138
16.7530000000	146
16.7830000000	131
16.8130000000	164
16.8430000000	169
16.8730000000	135
16.9030000000	157
16.9330000000	119
16.9630000000	146
16.9930000000	153
17.0230000000	138
17.0530000000	136
17.0830000000	139
17.1130000000	155
17.1430000000	147
17.1730000000	136
17.2030000000	133
17.2330000000	148
17.2630000000	138
17.2930000000	140
17.3230000000	141
17.3530000000	165
17.3830000000	151
17.4130000000	143
17.4430000000	153
17.4730000000	139
17.5030000000	137
17.5330000000	146
17.5630000000	150
17.5930000000	153
17.6230000000	150
17.6530000000	145
17.6830000000	157
17.7130000000	145
17.7430000000	141
17.7730000000	143
17.8030000000	154
17.8330000000	134
17.8630000000	130
17.8930000000	155
17.9230000000	164
17.9530000000	145
17.9830000000	130
18.0130000000	139
18.0430000000	128
18.0730000000	125
18.1030000000	143
18.1330000000	153
18.1630000000	125
18.1930000000	139
18.2230000000	136
18.2530000000	149
18.2830000000	139
18.3130000000	156
18.3430000000	145
18.3730000000	137
18.4030000000	148
18.4330000000	130
18.4630000000	137
18.4930000000	131
18.5230000000	141
18.5530000000	156
18.5830000000	161
18.6130000000	142
18.6430000000	128
18.6730000000	173
18.7030000000	140
18.7330000000	141
18.7630000000	145
18.7930000000	160
18.8230000000	154
18.8530000000	150
18.8830000000	150
18.9130000000	151
18.9430000000	136
18.9730000000	139
19.0030000000	173
19.0330000000	168
19.0630000000	141
19.0930000000	168
19.1230000000	181
19.1530000000	149
19.1830000000	152
19.2130000000	154
19.2430000000	136
19.2730000000	147
19.3030000000	164
19.3330000000	150
19.3630000000	166
19.3930000000	166
19.4230000000	180
19.4530000000	212
19.4830000000	249
19.5130000000	256
19.5430000000	316
19.5730000000	365
19.6030000000	370
19.6330000000	332
19.6630000000	307
19.6930000000	244
19.7230000000	174
19.7530000000	175
19.7830000000	193
19.8130000000	156
19.8430000000	148
19.8730000000	137
19.9030000000	141
19.9330000000	171
19.9630000000	162
19.9930000000	169
20.0230000000	146
20.0530000000	130
20.0830000000	141
20.1130000000	152
20.1430000000	144
20.1730000000	173
20.2030000000	162
20.2330000000	147
20.2630000000	148
20.2930000000	141
20.3230000000	146
20.3530000000	151
20.3830000000	143
20.4130000000	133
20.4430000000	143
20.4730000000	159
20.5030000000	154
20.5330000000	157
20.5630000000	147
20.5930000000	151
20.6230000000	164
20.6530000000	132
20.6830000000	134
20.7130000000	164
20.7430000000	156
20.7730000000	131
20.8030000000	142
20.8330000000	158
20.8630000000	162
20.8930000000	157
20.9230000000	127
20.9530000000	164
20.9830000000	136
21.0130000000	140
21.0430000000	195
21.0730000000	142
21.1030000000	150
21.1330000000	135
21.1630000000	151
21.1930000000	139
21.2230000000	154
21.2530000000	145
21.2830000000	163
21.3130000000	160
21.3430000000	149
21.3730000000	148
21.4030000000	169
21.4330000000	146
21.4630000000	156
21.4930000000	148
21.5230000000	151
21.5530000000	165
21.5830000000	169
21.6130000000	164
21.6430000000	171
21.6730000000	164
21.7030000000	173
21.7330000000	151
21.7630000000	150
21.7930000000	167
21.8230000000	179
21.8530000000	167
21.8830000000	161
21.9130000000	156
21.9430000000	147
21.9730000000	125
22.0030000000	154
22.0330000000	160
22.0630000000	157
22.0930000000	154
22.1230000000	169
22.1530000000	160
22.1830000000	160
22.2130000000	146
22.2430000000	162
22.2730000000	172
22.3030000000	178
22.3330000000	155
22.3630000000	150
22.3930000000	155
22.4230000000	155
22.4530000000	152
22.4830000000	169
22.5130000000	175
22.5430000000	172
22.5730000000	158
22.6030000000	159
22.6330000000	197
22.6630000000	197
22.6930000000	200
22.7230000000	237
22.7530000000	217
22.7830000000	216
22.8130000000	213
22.8430000000	195
22.8730000000	194
22.9030000000	192
22.9330000000	176
22.9630000000	173
22.9930000000	150
23.0230000000	178
23.0530000000	195
23.0830000000	161
23.1130000000	175
23.1430000000	169
23.1730000000	160
23.2030000000	171
23.2330000000	166
23.2630000000	170
23.2930000000	168
23.3230000000	168
23.3530000000	171
23.3830000000	167
23.4130000000	175
23.4430000000	165
23.4730000000	149
23.5030000000	163
23.5330000000	161
23.5630000000	161
23.5930000000	173
23.6230000000	170
23.6530000000	170
23.6830000000	148
23.7130000000	164
23.7430000000	203
23.7730000000	164
23.8030000000	169
23.8330000000	167
23.8630000000	182
23.8930000000	162
23.9230000000	199
23.9530000000	171
23.9830000000	179
24.0130000000	175
24.0430000000	167
24.0730000000	160
24.1030000000	151
24.1330000000	152
24.1630000000	173
24.1930000000	175
24.2230000000	165
24.2530000000	153
24.2830000000	149
24.3130000000	174
24.3430000000	150
24.3730000000	173
24.4030000000	157
24.4330000000	172
24.4630000000	165
24.4930000000	171
24.5230000000	157
24.5530000000	180
24.5830000000	172
24.6130000000	166
24.6430000000	159
24.6730000000	157
24.7030000000	167
24.7330000000	154
24.7630000000	158
24.7930000000	158
24.8230000000	153
24.8530000000	168
24.8830000000	158
24.9130000000	165
24.9430000000	160
24.9730000000	167
25.0030000000	168
25.0330000000	167
25.0630000000	167
25.0930000000	157
25.1230000000	205
25.1530000000	158
25.1830000000	176
25.2130000000	176
25.2430000000	168
25.2730000000	162
25.3030000000	156
25.3330000000	177
25.3630000000	139
25.3930000000	154
25.4230000000	163
25.4530000000	149
25.4830000000	147
25.5130000000	170
25.5430000000	152
25.5730000000	156
25.6030000000	163
25.6330000000	177
25.6630000000	167
25.6930000000	178
25.7230000000	155
25.7530000000	181
25.7830000000	147
25.8130000000	141
25.8430000000	154
25.8730000000	154
25.9030000000	167
25.9330000000	179
25.9630000000	189
25.9930000000	158
26.0230000000	165
26.0530000000	166
26.0830000000	145
26.1130000000	158
26.1430000000	169
26.1730000000	201
26.2030000000	200
26.2330000000	224
26.2630000000	274
26.2930000000	332
26.3230000000	411
26.3530000000	561
26.3830000000	711
26.4130000000	865
26.4430000000	949
26.4730000000	995
26.5030000000	753
26.5330000000	528
26.5630000000	414
26.5930000000	317
26.6230000000	250
26.6530000000	197
26.6830000000	195
26.7130000000	184
26.7430000000	203
26.7730000000	192
26.8030000000	181
26.8330000000	177
26.8630000000	173
26.8930000000	143
26.9230000000	150
26.9530000000	161
26.9830000000	148
27.0130000000	145
27.0430000000	148
27.0730000000	148
27.1030000000	143
27.1330000000	152
27.1630000000	154
27.1930000000	154
27.2230000000	170
27.2530000000	178
27.2830000000	145
27.3130000000	157
27.3430000000	136
27.3730000000	150
27.4030000000	160
27.4330000000	143
27.4630000000	152
27.4930000000	149
27.5230000000	160
27.5530000000	135
27.5830000000	167
27.6130000000	161
27.6430000000	156
27.6730000000	152
27.7030000000	141
27.7330000000	140
27.7630000000	150
27.7930000000	150
27.8230000000	145
27.8530000000	141
27.8830000000	147
27.9130000000	136
27.9430000000	126
27.9730000000	135
28.0030000000	140
28.0330000000	166
28.0630000000	141
28.0930000000	142
28.1230000000	153
28.1530000000	165
28.1830000000	134
28.2130000000	145
28.2430000000	142
28.2730000000	157
28.3030000000	146
28.3330000000	163
28.3630000000	132
28.3930000000	149
28.4230000000	164
28.4530000000	132
28.4830000000	149
28.5130000000	136
28.5430000000	138
28.5730000000	122
28.6030000000	168
28.6330000000	155
28.6630000000	193
28.6930000000	154
28.7230000000	150
28.7530000000	152
28.7830000000	167
28.8130000000	179
28.8430000000	151
28.8730000000	150
28.9030000000	144
28.9330000000	154
28.9630000000	155
28.9930000000	160
29.0230000000	135
29.0530000000	152
29.0830000000	170
29.1130000000	132
29.1430000000	138
29.1730000000	143
29.2030000000	146
29.2330000000	131
29.2630000000	141
29.2930000000	125
29.3230000000	136
29.3530000000	134
29.3830000000	129
29.4130000000	134
29.4430000000	173
29.4730000000	120
29.5030000000	128
29.5330000000	158
29.5630000000	135
29.5930000000	139
29.6230000000	125
29.6530000000	131
29.6830000000	137
29.7130000000	140
29.7430000000	152
29.7730000000	144
29.8030000000	152
29.8330000000	128
29.8630000000	118
29.8930000000	126
29.9230000000	136
29.9530000000	143
29.9830000000	139
30.0130000000	156
30.0430000000	114
30.0730000000	144
30.1030000000	126
30.1330000000	146
30.1630000000	151
30.1930000000	167
30.2230000000	181
30.2530000000	305
30.2830000000	382
30.3130000000	594
30.3430000000	854
30.3730000000	1236
30.4030000000	1876
30.4330000000	2370
30.4630000000	2752
30.4930000000	2627
30.5230000000	1997
30.5530000000	1374
30.5830000000	876
30.6130000000	607
30.6430000000	380
30.6730000000	257
30.7030000000	232
30.7330000000	181
30.7630000000	162
30.7930000000	174
30.8230000000	160
30.8530000000	156
30.8830000000	155
30.9130000000	138
30.9430000000	140
30.9730000000	146
31.0030000000	151
31.0330000000	131
31.0630000000	147
31.0930000000	146
31.1230000000	153
31.1530000000	125
31.1830000000	122
31.2130000000	112
31.2430000000	136
31.2730000000	134
31.3030000000	121
31.3330000000	125
31.3630000000	125
31.3930000000	130
31.4230000000	136
31.4530000000	139
31.4830000000	121
31.5130000000	132
31.5430000000	125
31.5730000000	160
31.6030000000	153
31.6330000000	145
31.6630000000	177
31.6930000000	214
31.7230000000	294
31.7530000000	369
31.7830000000	511
31.8130000000	782
31.8430000000	1082
31.8730000000	1359
31.9030000000	1675
31.9330000000	1640
31.9630000000	1363
31.9930000000	1000
32.0230000000	797
32.0530000000	742
32.0830000000	798
32.1130000000	916
32.1430000000	1081
32.1730000000	1146
32.2030000000	1084
32.2330000000	908
32.2630000000	670
32.2930000000	517
32.3230000000	358
32.3530000000	258
32.3830000000	200
32.4130000000	154
32.4430000000	145
32.4730000000	126
32.5030000000	129
32.5330000000	117
32.5630000000	118
32.5930000000	135
32.6230000000	126
32.6530000000	128
32.6830000000	130
32.7130000000	110
32.7430000000	108
32.7730000000	111
32.8030000000	91
32.8330000000	112
32.8630000000	114
32.8930000000	106
32.9230000000	101
32.9530000000	122
32.9830000000	114
33.0130000000	107
33.0430000000	103
33.0730000000	122
33.1030000000	107
33.1330000000	107
33.1630000000	128
33.1930000000	125
33.2230000000	120
33.2530000000	136
33.2830000000	138
33.3130000000	121
33.3430000000	139
33.3730000000	148
33.4030000000	119
33.4330000000	114
33.4630000000	123
33.4930000000	107
33.5230000000	102
33.5530000000	100
33.5830000000	99
33.6130000000	111
33.6430000000	104
33.6730000000	106
33.7030000000	106
33.7330000000	110
33.7630000000	104
33.7930000000	89
33.8230000000	93
33.8530000000	99
33.8830000000	103
33.9130000000	104
33.9430000000	117
33.9730000000	111
34.0030000000	88
34.0330000000	92
34.0630000000	104
34.0930000000	114
34.1230000000	101
34.1530000000	100
34.1830000000	102
34.2130000000	99
34.2430000000	91
34.2730000000	108
34.3030000000	97
34.3330000000	86
34.3630000000	119
34.3930000000	106
34.4230000000	89
34.4530000000	89
34.4830000000	96
34.5130000000	100
34.5430000000	101
34.5730000000	88
34.6030000000	79
34.6330000000	93
34.6630000000	102
34.6930000000	107
34.7230000000	108
34.7530000000	94
34.7830000000	100
34.8130000000	88
34.8430000000	92
34.8730000000	100
34.9030000000	106
34.9330000000	101
34.9630000000	100
34.9930000000	97
35.0230000000	84
35.0530000000	93
35.0830000000	105
35.1130000000	102
35.1430000000	103
35.1730000000	113
35.2030000000	101
35.2330000000	127
35.2630000000	146
35.2930000000	169
35.3230000000	204
35.3530000000	225
35.3830000000	247
35.4130000000	260
35.4430000000	244
35.4730000000	216
35.5030000000	182
35.5330000000	146
35.5630000000	130
35.5930000000	108
35.6230000000	83
35.6530000000	86
35.6830000000	103
35.7130000000	109
35.7430000000	95
35.7730000000	87
35.8030000000	86
35.8330000000	99
35.8630000000	112
35.8930000000	103
35.9230000000	103
35.9530000000	91
35.9830000000	87
36.0130000000	93
36.0430000000	106
36.0730000000	100
36.1030000000	109
36.1330000000	90
36.1630000000	77
36.1930000000	87
36.2230000000	93
36.2530000000	108
36.2830000000	97
36.3130000000	92
36.3430000000	103
36.3730000000	107
36.4030000000	109
36.4330000000	114
36.4630000000	106
36.4930000000	137
36.5230000000	145
36.5530000000	180
36.5830000000	248
36.6130000000	312
36.6430000000	410
36.6730000000	457
36.7030000000	420
36.7330000000	361
36.7630000000	293
36.7930000000	244
36.8230000000	160
36.8530000000	122
36.8830000000	121
36.9130000000	116
36.9430000000	90
36.9730000000	103
37.0030000000	92
37.0330000000	82
37.0630000000	79
37.0930000000	75
37.1230000000	104
37.1530000000	85
37.1830000000	89
37.2130000000	91
37.2430000000	86
37.2730000000	74
37.3030000000	70
37.3330000000	80
37.3630000000	80
37.3930000000	87
37.4230000000	91
37.4530000000	89
37.4830000000	93
37.5130000000	91
37.5430000000	97
37.5730000000	90
37.6030000000	86
37.6330000000	84
37.6630000000	75
37.6930000000	82
37.7230000000	83
37.7530000000	100
37.7830000000	102
37.8130000000	73
37.8430000000	88
37.8730000000	84
37.9030000000	81
37.9330000000	86
37.9630000000	88
37.9930000000	88
38.0230000000	84
38.0530000000	73
38.0830000000	95
38.1130000000	84
38.1430000000	84
38.1730000000	79
38.2030000000	80
38.2330000000	91
38.2630000000	94
38.2930000000	96
38.3230000000	70
38.3530000000	70
38.3830000000	80
38.4130000000	87
38.4430000000	82
38.4730000000	67
38.5030000000	71
38.5330000000	77
38.5630000000	86
38.5930000000	100
38.6230000000	89
38.6530000000	73
38.6830000000	71
38.7130000000	79
38.7430000000	89
38.7730000000	87
38.8030000000	80
38.8330000000	78
38.8630000000	77
38.8930000000	84
38.9230000000	85
38.9530000000	87
38.9830000000	85
39.0130000000	80
39.0430000000	100
39.0730000000	86
39.1030000000	82
39.1330000000	94
39.1630000000	89
39.1930000000	98
39.2230000000	92
39.2530000000	93
39.2830000000	97
39.3130000000	83
39.3430000000	98
39.3730000000	96
39.4030000000	96
39.4330000000	103
39.4630000000	115
39.4930000000	113
39.5230000000	125
39.5530000000	131
39.5830000000	167
39.6130000000	207
39.6430000000	292
39.6730000000	397
39.7030000000	618
39.7330000000	912
39.7630000000	1127
39.7930000000	1261
39.8230000000	1098
39.8530000000	922
39.8830000000	756
39.9130000000	507
39.9430000000	360
39.9730000000	233
40.0030000000	186
40.0330000000	131
40.0630000000	117
40.0930000000	92
40.1230000000	86
40.1530000000	93
40.1830000000	96
40.2130000000	88
40.2430000000	96
40.2730000000	92
40.3030000000	86
40.3330000000	104
40.3630000000	97
40.3930000000	84
40.4230000000	76
40.4530000000	64
40.4830000000	88
40.5130000000	89
40.5430000000	88
40.5730000000	90
40.6030000000	75
40.6330000000	72
40.6630000000	90
40.6930000000	82
40.7230000000	75
40.7530000000	85
40.7830000000	78
40.8130000000	100
40.8430000000	91
40.8730000000	85
40.9030000000	74
40.9330000000	78
40.9630000000	66
40.9930000000	81
41.0230000000	105
41.0530000000	105
41.0830000000	84
41.1130000000	81
41.1430000000	88
41.1730000000	87
41.2030000000	88
41.2330000000	78
41.2630000000	75
41.2930000000	81
41.3230000000	74
41.3530000000	93
41.3830000000	91
41.4130000000	75
41.4430000000	82
41.4730000000	71
41.5030000000	78
41.5330000000	81
41.5630000000	81
41.5930000000	86
41.6230000000	87
41.6530000000	82
41.6830000000	82
41.7130000000	86
41.7430000000	72
41.7730000000	68
41.8030000000	73
41.8330000000	78
41.8630000000	76
41.8930000000	82
41.9230000000	82
41.9530000000	83
41.9830000000	79
42.0130000000	72
42.0430000000	77
42.0730000000	74
42.1030000000	80
42.1330000000	96
42.1630000000	77
42.1930000000	60
42.2230000000	63
42.2530000000	76
42.2830000000	80
42.3130000000	70
42.3430000000	82
42.3730000000	88
42.4030000000	83
42.4330000000	87
42.4630000000	77
42.4930000000	73
42.5230000000	80
42.5530000000	81
42.5830000000	71
42.6130000000	71
42.6430000000	84
42.6730000000	87
42.7030000000	79
42.7330000000	86
42.7630000000	86
42.7930000000	81
42.8230000000	93
42.8530000000	76
42.8830000000	96
42.9130000000	97
42.9430000000	96
42.9730000000	113
43.0030000000	107
43.0330000000	128
43.0630000000	171
43.0930000000	231
43.1230000000	321
43.1530000000	452
43.1830000000	675
43.2130000000	944
43.2430000000	1235
43.2730000000	1341
43.3030000000	1210
43.3330000000	1088
43.3630000000	894
43.3930000000	603
43.4230000000	415
43.4530000000	257
43.4830000000	217
43.5130000000	148
43.5430000000	110
43.5730000000	115
43.6030000000	129
43.6330000000	95
43.6630000000	115
43.6930000000	121
43.7230000000	101
43.7530000000	120
43.7830000000	110
43.8130000000	122
43.8430000000	121
43.8730000000	110
43.9030000000	104
43.9330000000	99
43.9630000000	82
43.9930000000	85
44.0230000000	80
44.0530000000	79
44.0830000000	76
44.1130000000	71
44.1430000000	74
44.1730000000	91
44.2030000000	88
44.2330000000	78
44.2630000000	77
44.2930000000	70
44.3230000000	74
44.3530000000	72
44.3830000000	78
44.4130000000	72
44.4430000000	77
44.4730000000	71
44.5030000000	56
44.5330000000	83
44.5630000000	81
44.5930000000	77
44.6230000000	72
44.6530000000	61
44.6830000000	75
44.7130000000	72
44.7430000000	66
44.7730000000	83
44.8030000000	88
44.8330000000	81
44.8630000000	91
44.8930000000	103
44.9230000000	142
44.9530000000	171
44.9830000000	243
45.0130000000	312
45.0430000000	448
45.0730000000	580
45.1030000000	811
45.1330000000	879
45.1630000000	858
45.1930000000	690
45.2230000000	616
45.2530000000	442
45.2830000000	286
45.3130000000	201
45.3430000000	166
45.3730000000	137
45.4030000000	106
45.4330000000	91
45.4630000000	71
45.4930000000	72
45.5230000000	79
45.5530000000	71
45.5830000000	68
45.6130000000	77
45.6430000000	75
45.6730000000	71
45.7030000000	69
45.7330000000	67
45.7630000000	67
45.7930000000	64
45.8230000000	66
45.8530000000	62
45.8830000000	77
45.9130000000	79
45.9430000000	79
45.9730000000	76
46.0030000000	102
46.0330000000	136
46.0630000000	173
46.0930000000	194
46.1230000000	164
46.1530000000	172
46.1830000000	165
46.2130000000	161
46.2430000000	120
46.2730000000	114
46.3030000000	82
46.3330000000	91
46.3630000000	91
46.3930000000	94
46.4230000000	85
46.4530000000	101
46.4830000000	114
46.5130000000	115
46.5430000000	113
46.5730000000	109
46.6030000000	94
46.6330000000	99
46.6630000000	95
46.6930000000	89
46.7230000000	83
46.7530000000	70
46.7830000000	74
46.8130000000	73
46.8430000000	91
46.8730000000	98
46.9030000000	94
46.9330000000	132
46.9630000000	134
46.9930000000	197
47.0230000000	248
47.0530000000	224
47.0830000000	230
47.1130000000	230
47.1430000000	179
47.1730000000	172
47.2030000000	136
47.2330000000	102
47.2630000000	98
47.2930000000	81
47.3230000000	75
47.3530000000	63
47.3830000000	84
47.4130000000	67
47.4430000000	89
47.4730000000	87
47.5030000000	70
47.5330000000	92
47.5630000000	89
47.5930000000	99
47.6230000000	103
47.6530000000	93
47.6830000000	81
47.7130000000	76
47.7430000000	87
47.7730000000	54
47.8030000000	86
47.8330000000	67
47.8630000000	79
47.8930000000	65
47.9230000000	51
47.9530000000	55
47.9830000000	61
48.0130000000	58
48.0430000000	60
48.0730000000	52
48.1030000000	60
48.1330000000	54
48.1630000000	60
48.1930000000	49
48.2230000000	50
48.2530000000	57
48.2830000000	53
48.3130000000	52
48.3430000000	61
48.3730000000	51
48.4030000000	64
48.4330000000	62
48.4630000000	69
48.4930000000	54
48.5230000000	49
48.5530000000	61
48.5830000000	59
48.6130000000	63
48.6430000000	66
48.6730000000	52
48.7030000000	63
48.7330000000	70
48.7630000000	62
48.7930000000	67
48.8230000000	62
48.8530000000	63
48.8830000000	59
48.9130000000	64
48.9430000000	65
48.9730000000	52
49.0030000000	51
49.0330000000	56
49.0630000000	62
49.0930000000	57
49.1230000000	58
49.1530000000	70
49.1830000000	59
49.2130000000	61
49.2430000000	45
49.2730000000	56
49.3030000000	58
49.3330000000	53
49.3630000000	58
49.3930000000	48
49.4230000000	48
49.4530000000	58
49.4830000000	53
49.5130000000	52
49.5430000000	46
49.5730000000	45
49.6030000000	48
49.6330000000	47
49.6630000000	53
49.6930000000	53
49.7230000000	63
49.7530000000	54
49.7830000000	53
49.8130000000	59
49.8430000000	53
49.8730000000	65
49.9030000000	58
49.9330000000	61
49.9630000000	55
49.9930000000	48
50.0230000000	58
50.0530000000	53
50.0830000000	62
50.1130000000	63
50.1430000000	50
50.1730000000	51
50.2030000000	45
50.2330000000	48
50.2630000000	49
50.2930000000	53
50.3230000000	65
50.3530000000	55
50.3830000000	58
50.4130000000	61
50.4430000000	73
50.4730000000	71
50.5030000000	76
50.5330000000	86
50.5630000000	91
50.5930000000	87
50.6230000000	96
50.6530000000	79
50.6830000000	72
50.7130000000	70
50.7430000000	78
50.7730000000	63
50.8030000000	63
50.8330000000	55
50.8630000000	64
50.8930000000	46
50.9230000000	54
50.9530000000	59
50.9830000000	58
51.0130000000	69
51.0430000000	68
51.0730000000	48
51.1030000000	47
51.1330000000	56
51.1630000000	52
51.1930000000	46
51.2230000000	65
51.2530000000	56
51.2830000000	49
51.3130000000	55
51.3430000000	56
51.3730000000	63
51.4030000000	58
51.4330000000	53
51.4630000000	56
51.4930000000	59
51.5230000000	52
51.5530000000	52
51.5830000000	50
51.6130000000	44
51.6430000000	37
51.6730000000	46
51.7030000000	56
51.7330000000	50
51.7630000000	33
51.7930000000	49
51.8230000000	56
51.8530000000	55
51.8830000000	50
51.9130000000	47
51.9430000000	59
51.9730000000	49
52.0030000000	43
52.0330000000	64
52.0630000000	70
52.0930000000	49
52.1230000000	65
52.1530000000	73
52.1830000000	88
52.2130000000	105
52.2430000000	85
52.2730000000	79
52.3030000000	62
52.3330000000	72
52.3630000000	61
52.3930000000	56
52.4230000000	51
52.4530000000	53
52.4830000000	51
52.5130000000	56
52.5430000000	56
52.5730000000	42
52.6030000000	54
52.6330000000	58
52.6630000000	50
52.6930000000	55
52.7230000000	49
52.7530000000	50
52.7830000000	40
52.8130000000	54
52.8430000000	50
52.8730000000	53
52.9030000000	34
52.9330000000	45
52.9630000000	59
52.9930000000	61
53.0230000000	49
53.0530000000	52
53.0830000000	48
53.1130000000	53
53.1430000000	37
53.1730000000	54
53.2030000000	53
53.2330000000	58
53.2630000000	46
53.2930000000	46
53.3230000000	49
53.3530000000	52
53.3830000000	54
53.4130000000	46
53.4430000000	45
53.4730000000	43
53.5030000000	48
53.5330000000	37
53.5630000000	47
53.5930000000	56
53.6230000000	41
53.6530000000	39
53.6830000000	50
53.7130000000	60
53.7430000000	59
53.7730000000	43
53.8030000000	61
53.8330000000	75
53.8630000000	77
53.8930000000	78
53.9230000000	106
53.9530000000	110
53.9830000000	133
54.0130000000	119
54.0430000000	114
54.0730000000	102
54.1030000000	85
54.1330000000	68
54.1630000000	71
54.1930000000	71
54.2230000000	49
54.2530000000	42
54.2830000000	59
54.3130000000	60
54.3430000000	53
54.3730000000	45
54.4030000000	51
54.4330000000	69
54.4630000000	61
54.4930000000	54
54.5230000000	54
54.5530000000	52
54.5830000000	56
54.6130000000	48
54.6430000000	49
54.6730000000	47
54.7030000000	38
54.7330000000	62
54.7630000000	46
54.7930000000	47
54.8230000000	41
54.8530000000	65
54.8830000000	46
54.9130000000	60
54.9430000000	75
54.9730000000	57
55.0030000000	89
55.0330000000	98
55.0630000000	106
55.0930000000	127
55.1230000000	120
55.1530000000	113
55.1830000000	103
55.2130000000	90
55.2430000000	91
55.2730000000	95
55.3030000000	67
55.3330000000	79
55.3630000000	75
55.3930000000	82
55.4230000000	93
55.4530000000	124
55.4830000000	117
55.5130000000	122
55.5430000000	120
55.5730000000	129
55.6030000000	111
55.6330000000	127
55.6630000000	96
55.6930000000	83
55.7230000000	64
55.7530000000	72
55.7830000000	47
55.8130000000	32
55.8430000000	52
55.8730000000	53
55.9030000000	51
55.9330000000	45
55.9630000000	54
55.9930000000	40
56.0230000000	44
56.0530000000	49
56.0830000000	46
56.1130000000	43
56.1430000000	49
56.1730000000	46
56.2030000000	34
56.2330000000	45
56.2630000000	47
56.2930000000	47
56.3230000000	48
56.3530000000	51
56.3830000000	51
56.4130000000	41
56.4430000000	46
56.4730000000	43
56.5030000000	45
56.5330000000	37
56.5630000000	35
56.5930000000	45
56.6230000000	59
56.6530000000	50
56.6830000000	42
56.7130000000	46
56.7430000000	55
56.7730000000	50
56.8030000000	41
56.8330000000	50
56.8630000000	46
56.8930000000	45
56.9230000000	47
56.9530000000	56
56.9830000000	48
57.0130000000	50
57.0430000000	44
57.0730000000	36
57.1030000000	57
57.1330000000	57
57.1630000000	44
57.1930000000	53
57.2230000000	48
57.2530000000	64
57.2830000000	56
57.3130000000	54
57.3430000000	62
57.3730000000	47
57.4030000000	42
57.4330000000	37
57.4630000000	43
57.4930000000	51
57.5230000000	49
57.5530000000	52
57.5830000000	46
57.6130000000	46
57.6430000000	37
57.6730000000	54
57.7030000000	51
57.7330000000	49
57.7630000000	48
57.7930000000	48
57.8230000000	45
57.8530000000	36
57.8830000000	50
57.9130000000	47
57.9430000000	42
57.9730000000	35
58.0030000000	42
58.0330000000	45
58.0630000000	49
58.0930000000	43
58.1230000000	46
58.1530000000	44
58.1830000000	49
58.2130000000	41
58.2430000000	38
58.2730000000	53
58.3030000000	37
58.3330000000	52
58.3630000000	48
58.3930000000	57
58.4230000000	35
58.4530000000	51
58.4830000000	44
58.5130000000	42
58.5430000000	38
58.5730000000	38
58.6030000000	45
58.6330000000	41
58.6630000000	52
58.6930000000	41
58.7230000000	42
58.7530000000	44
58.7830000000	51
58.8130000000	36
58.8430000000	45
58.8730000000	43
58.9030000000	38
58.9330000000	37
58.9630000000	44
58.9930000000	39
59.0230000000	41
59.0530000000	35
59.0830000000	44
59.1130000000	44
59.1430000000	47
59.1730000000	43
59.2030000000	38
59.2330000000	48
59.2630000000	42
59.2930000000	30
59.3230000000	46
59.3530000000	53
59.3830000000	44
59.4130000000	35
59.4430000000	39
59.4730000000	46
59.5030000000	41
59.5330000000	46
59.5630000000	43
59.5930000000	58
59.6230000000	41
59.6530000000	49
59.6830000000	40
59.7130000000	44
59.7430000000	43
59.7730000000	54
59.8030000000	36
59.8330000000	44
59.8630000000	48
59.8930000000	48
59.9230000000	42
59.9530000000	41
59.9830000000	46
60.0130000000	55
60.0430000000	47
60.0730000000	31
60.1030000000	46
60.1330000000	49
60.1630000000	55
60.1930000000	64
60.2230000000	67
60.2530000000	81
60.2830000000	89
60.3130000000	125
60.3430000000	148
60.3730000000	120
60.4030000000	133
60.4330000000	122
60.4630000000	103
60.4930000000	96
60.5230000000	88
60.5530000000	71
60.5830000000	56
60.6130000000	58
60.6430000000	45
60.6730000000	40
60.7030000000	51
60.7330000000	35
60.7630000000	46
60.7930000000	51
60.8230000000	47
60.8530000000	42
60.8830000000	40
60.9130000000	42
60.9430000000	57
60.9730000000	47
61.0030000000	46
61.0330000000	39
61.0630000000	40
61.0930000000	49
61.1230000000	50
61.1530000000	35
61.1830000000	49
61.2130000000	57
61.2430000000	52
61.2730000000	54
61.3030000000	59
61.3330000000	54
61.3630000000	46
61.3930000000	66
61.4230000000	69
61.4530000000	74
61.4830000000	79
61.5130000000	78
61.5430000000	140
61.5730000000	120
61.6030000000	112
61.6330000000	108
61.6630000000	123
61.6930000000	95
61.7230000000	91
61.7530000000	92
61.7830000000	74
61.8130000000	61
61.8430000000	53
61.8730000000	52
61.9030000000	53
61.9330000000	49
61.9630000000	43
61.9930000000	32
62.0230000000	29
62.0530000000	40
62.0830000000	42
62.1130000000	43
62.1430000000	46
62.1730000000	38
62.2030000000	50
62.2330000000	47
62.2630000000	54
62.2930000000	36
62.3230000000	41
62.3530000000	42
62.3830000000	47
62.4130000000	45
62.4430000000	50
62.4730000000	41
62.5030000000	38
62.5330000000	38
62.5630000000	43
62.5930000000	46
62.6230000000	37
62.6530000000	38
62.6830000000	39
62.7130000000	46
62.7430000000	35
62.7730000000	43
62.8030000000	44
62.8330000000	47
62.8630000000	30
62.8930000000	45
62.9230000000	56
62.9530000000	39
62.9830000000	44
63.0130000000	49
63.0430000000	43
63.0730000000	41
63.1030000000	38
63.1330000000	41
63.1630000000	42
63.1930000000	39
63.2230000000	35
63.2530000000	39
63.2830000000	47
63.3130000000	40
63.3430000000	43
63.3730000000	49
63.4030000000	49
63.4330000000	64
63.4630000000	48
63.4930000000	56
63.5230000000	49
63.5530000000	52
63.5830000000	49
63.6130000000	41
63.6430000000	36
63.6730000000	30
63.7030000000	56
63.7330000000	36
63.7630000000	50
63.7930000000	47
63.8230000000	43
63.8530000000	39
63.8830000000	37
63.9130000000	45
63.9430000000	39
63.9730000000	46
64.0030000000	35
64.0330000000	36
64.0630000000	32
64.0930000000	48
64.1230000000	38
64.1530000000	34
64.1830000000	35
64.2130000000	32
64.2430000000	57
64.2730000000	41
64.3030000000	48
64.3330000000	38
64.3630000000	41
64.3930000000	33
64.4230000000	35
64.4530000000	34
64.4830000000	45
64.5130000000	53
64.5430000000	47
64.5730000000	35
64.6030000000	45
64.6330000000	42
64.6630000000	58
64.6930000000	38
64.7230000000	39
64.7530000000	50
64.7830000000	58
64.8130000000	53
64.8430000000	49
64.8730000000	45
64.9030000000	48
64.9330000000	42
64.9630000000	41
64.9930000000	40
65.0230000000	29
65.0530000000	36
65.0830000000	42
65.1130000000	50
65.1430000000	42
65.1730000000	45
65.2030000000	42
65.2330000000	55
65.2630000000	57
65.2930000000	36
65.3230000000	33
65.3530000000	40
65.3830000000	40
65.4130000000	40
65.4430000000	43
65.4730000000	45
65.5030000000	43
65.5330000000	37
65.5630000000	38
65.5930000000	50
65.6230000000	43
65.6530000000	41
65.6830000000	44
65.7130000000	36
65.7430000000	39
65.7730000000	41
65.8030000000	41
65.8330000000	34
65.8630000000	47
65.8930000000	40
65.9230000000	45
65.9530000000	38
65.9830000000	56
66.0130000000	47
66.0430000000	40
66.0730000000	40
66.1030000000	52
66.1330000000	39
66.1630000000	54
66.1930000000	55
66.2230000000	63
66.2530000000	89
66.2830000000	105
66.3130000000	134
66.3430000000	167
66.3730000000	164
66.4030000000	142
66.4330000000	136
66.4630000000	138
66.4930000000	111
66.5230000000	97
66.5530000000	100
66.5830000000	88
66.6130000000	74
66.6430000000	73
66.6730000000	57
66.7030000000	50
66.7330000000	68
66.7630000000	68
66.7930000000	43
66.8230000000	54
66.8530000000	43
66.8830000000	51
66.9130000000	49
66.9430000000	55
66.9730000000	48
67.0030000000	49
67.0330000000	36
67.0630000000	35
67.0930000000	34
67.1230000000	36
67.1530000000	42
67.1830000000	45
67.2130000000	42
67.2430000000	35
67.2730000000	34
67.3030000000	40
67.3330000000	36
67.3630000000	37
67.3930000000	43
67.4230000000	43
67.4530000000	53
67.4830000000	36
67.5130000000	43
67.5430000000	43
67.5730000000	30
67.6030000000	43
67.6330000000	52
67.6630000000	52
67.6930000000	41
67.7230000000	34
67.7530000000	39
67.7830000000	41
67.8130000000	40
67.8430000000	45
67.8730000000	47
67.9030000000	36
67.9330000000	42
67.9630000000	35
67.9930000000	33
68.0230000000	43
68.0530000000	36
68.0830000000	39
68.1130000000	32
68.1430000000	40
68.1730000000	31
68.2030000000	39
68.2330000000	46
68.2630000000	35
68.2930000000	40
68.3230000000	42
68.3530000000	44
68.3830000000	38
68.4130000000	39
68.4430000000	40
68.4730000000	47
68.5030000000	38
68.5330000000	37
68.5630000000	33
68.5930000000	43
68.6230000000	42
68.6530000000	47
68.6830000000	42
68.7130000000	44
68.7430000000	52
68.7730000000	39
68.8030000000	47
68.8330000000	45
68.8630000000	33
68.8930000000	34
68.9230000000	46
68.9530000000	48
68.9830000000	43
69.0130000000	33
69.0430000000	31
69.0730000000	39
69.1030000000	35
69.1330000000	51
69.1630000000	40
69.1930000000	37
69.2230000000	34
69.2530000000	34
69.2830000000	57
69.3130000000	48
69.3430000000	59
69.3730000000	49
69.4030000000	42
69.4330000000	43
69.4630000000	42
69.4930000000	58
69.5230000000	45
69.5530000000	41
69.5830000000	33
69.6130000000	41
69.6430000000	51
69.6730000000	59
69.7030000000	39
69.7330000000	44
69.7630000000	42
69.7930000000	40
69.8230000000	52
69.8530000000	44
69.8830000000	40
69.9130000000	46
69.9430000000	45
69.9730000000	41
70.0030000000	42
70.0330000000	42
70.0630000000	44
70.0930000000	42
70.1230000000	36
70.1530000000	51
70.1830000000	41
70.2130000000	44
70.2430000000	50
70.2730000000	36
70.3030000000	42
70.3330000000	43
70.3630000000	37
70.3930000000	46
70.4230000000	43
70.4530000000	34
70.4830000000	34
70.5130000000	40
70.5430000000	36
70.5730000000	47
70.6030000000	47
70.6330000000	39
70.6630000000	33
70.6930000000	36
70.7230000000	35
70.7530000000	37
70.7830000000	32
70.8130000000	40
70.8430000000	31
70.8730000000	32
70.9030000000	40
70.9330000000	39
70.9630000000	38
70.9930000000	39
71.0230000000	39
71.0530000000	37
71.0830000000	40
71.1130000000	37
71.1430000000	29
71.1730000000	38
71.2030000000	49
71.2330000000	54
71.2630000000	46
71.2930000000	43
71.3230000000	28
71.3530000000	32
71.3830000000	44
71.4130000000	54
71.4430000000	31
71.4730000000	36
71.5030000000	38
71.5330000000	46
71.5630000000	34
71.5930000000	40
71.6230000000	49
71.6530000000	43
71.6830000000	40
71.7130000000	38
71.7430000000	45
71.7730000000	47
71.8030000000	46
71.8330000000	53
71.8630000000	46
71.8930000000	46
71.9230000000	37
71.9530000000	47
71.9830000000	32
72.0130000000	40
72.0430000000	69
72.0730000000	49
72.1030000000	55
72.1330000000	58
72.1630000000	53
72.1930000000	60
72.2230000000	59
72.2530000000	51
72.2830000000	53
72.3130000000	58
72.3430000000	50
72.3730000000	60
72.4030000000	76
72.4330000000	96
72.4630000000	96
72.4930000000	95
72.5230000000	103
72.5530000000	105
72.5830000000	91
72.6130000000	95
72.6430000000	82
72.6730000000	70
72.7030000000	81
72.7330000000	87
72.7630000000	93
72.7930000000	62
72.8230000000	69
72.8530000000	92
72.8830000000	112
72.9130000000	130
72.9430000000	128
72.9730000000	169
73.0030000000	155
73.0330000000	149
73.0630000000	129
73.0930000000	138
73.1230000000	118
73.1530000000	137
73.1830000000	120
73.2130000000	93
73.2430000000	77
73.2730000000	82
73.3030000000	56
73.3330000000	48
73.3630000000	50
73.3930000000	54
73.4230000000	57
73.4530000000	44
73.4830000000	38
73.5130000000	44
73.5430000000	41
73.5730000000	46
73.6030000000	38
73.6330000000	44
73.6630000000	45
73.6930000000	48
73.7230000000	53
73.7530000000	32
73.7830000000	40
73.8130000000	43
73.8430000000	40
73.8730000000	46
73.9030000000	45
73.9330000000	41
73.9630000000	36
73.9930000000	40
74.0230000000	42
74.0530000000	51
74.0830000000	43
74.1130000000	42
74.1430000000	46
74.1730000000	52
74.2030000000	50
74.2330000000	35
74.2630000000	46
74.2930000000	35
74.3230000000	49
74.3530000000	50
74.3830000000	38
74.4130000000	39
74.4430000000	40
74.4730000000	35
74.5030000000	39
74.5330000000	38
74.5630000000	50
74.5930000000	40
74.6230000000	39
74.6530000000	46
74.6830000000	39
74.7130000000	39
74.7430000000	50
74.7730000000	50
74.8030000000	51
74.8330000000	70
74.8630000000	57
74.8930000000	52
74.9230000000	51
74.9530000000	48
74.9830000000	48
75.0130000000	35
75.0430000000	52
75.0730000000	46
75.1030000000	41
75.1330000000	47
75.1630000000	42
75.1930000000	42
75.2230000000	42
75.2530000000	37
75.2830000000	44
75.3130000000	42
75.3430000000	46
75.3730000000	52
75.4030000000	57
75.4330000000	54
75.4630000000	42
75.4930000000	53
75.5230000000	48
75.5530000000	43
75.5830000000	47
75.6130000000	42
75.6430000000	39
75.6730000000	45
75.7030000000	40
75.7330000000	37
75.7630000000	49
75.7930000000	48
75.8230000000	36
75.8530000000	37
75.8830000000	47
75.9130000000	39
75.9430000000	36
75.9730000000	33
76.0030000000	32
76.0330000000	40
76.0630000000	40
76.0930000000	32
76.1230000000	32
76.1530000000	36
76.1830000000	38
76.2130000000	41
76.2430000000	27
76.2730000000	39
76.3030000000	38
76.3330000000	40
76.3630000000	50
76.3930000000	39
76.4230000000	48
76.4530000000	37
76.4830000000	36
76.5130000000	30
76.5430000000	43
76.5730000000	31
76.6030000000	25
76.6330000000	33
76.6630000000	58
76.6930000000	42
76.7230000000	35
76.7530000000	40
76.7830000000	46
76.8130000000	33
76.8430000000	36
76.8730000000	43
76.9030000000	46
76.9330000000	58
76.9630000000	45
76.9930000000	35
77.0230000000	34
77.0530000000	35
77.0830000000	30
77.1130000000	45
77.1430000000	42
77.1730000000	34
77.2030000000	35
77.2330000000	36
77.2630000000	51
77.2930000000	36
77.3230000000	42
77.3530000000	48
77.3830000000	32
77.4130000000	32
77.4430000000	38
77.4730000000	52
77.5030000000	52
77.5330000000	50
77.5630000000	47
77.5930000000	58
77.6230000000	63
77.6530000000	82
77.6830000000	80
77.7130000000	55
77.7430000000	51
77.7730000000	54
77.8030000000	58
77.8330000000	80
77.8630000000	46
77.8930000000	49
77.9230000000	49
77.9530000000	57
77.9830000000	55
78.0130000000	52
78.0430000000	51
78.0730000000	54
78.1030000000	43
78.1330000000	44
78.1630000000	39
78.1930000000	36
78.2230000000	51
78.2530000000	53
78.2830000000	45
78.3130000000	48
78.3430000000	37
78.3730000000	28
78.4030000000	36
78.4330000000	49
78.4630000000	38
78.4930000000	46
78.5230000000	44
78.5530000000	40
78.5830000000	37
78.6130000000	56
78.6430000000	46
78.6730000000	47
78.7030000000	51
78.7330000000	45
78.7630000000	43
78.7930000000	46
78.8230000000	55
78.8530000000	40
78.8830000000	46
78.9130000000	45
78.9430000000	47
78.9730000000	47
79.0030000000	49
79.0330000000	41
79.0630000000	33
79.0930000000	33
79.1230000000	35
79.1530000000	40
79.1830000000	36
79.2130000000	34
79.2430000000	29
79.2730000000	39
79.3030000000	36
79.3330000000	37
79.3630000000	39
79.3930000000	43
79.4230000000	39
79.4530000000	44
79.4830000000	39
79.5130000000	53
79.5430000000	33
79.5730000000	36
79.6030000000	46
79.6330000000	34
79.6630000000	36
79.6930000000	40
79.7230000000	39
79.7530000000	43
79.7830000000	36
79.8130000000	50
79.8430000000	49
79.8730000000	40
79.9030000000	44
79.9330000000	50
79.9630000000	53
79.9930000000	53
80.0230000000	36
80.0530000000	31
80.0830000000	40
80.1130000000	33
80.1430000000	41
80.1730000000	46
80.2030000000	43
80.2330000000	47
80.2630000000	41
80.2930000000	37
80.3230000000	39
80.3530000000	44
80.3830000000	42
80.4130000000	47
80.4430000000	47
80.4730000000	44
80.5030000000	33
80.5330000000	35
80.5630000000	44
80.5930000000	47
80.6230000000	39
80.6530000000	45
80.6830000000	47
80.7130000000	51
80.7430000000	55
80.7730000000	53
80.8030000000	56
80.8330000000	58
80.8630000000	61
80.8930000000	40
80.9230000000	54
80.9530000000	49
80.9830000000	46
81.0130000000	54
81.0430000000	43
81.0730000000	52
81.1030000000	47
81.1330000000	34
81.1630000000	41
81.1930000000	31
81.2230000000	38
81.2530000000	56
81.2830000000	43
81.3130000000	65
81.3430000000	39
81.3730000000	67
81.4030000000	46
81.4330000000	41
81.4630000000	29
81.4930000000	49
81.5230000000	51
81.5530000000	47
81.5830000000	37
81.6130000000	46
81.6430000000	37
81.6730000000	36
81.7030000000	31
81.7330000000	40
81.7630000000	54
81.7930000000	31
81.8230000000	43
81.8530000000	41
81.8830000000	49
81.9130000000	35
81.9430000000	36
81.9730000000	29
82.0030000000	36
82.0330000000	44
82.0630000000	37
82.0930000000	35
82.1230000000	28
82.1530000000	37
82.1830000000	44
82.2130000000	31
82.2430000000	36
82.2730000000	32
82.3030000000	36
82.3330000000	36
82.3630000000	33
82.3930000000	33
82.4230000000	29
82.4530000000	33
82.4830000000	35
82.5130000000	37
82.5430000000	45
82.5730000000	40
82.6030000000	34
82.6330000000	32
82.6630000000	42
82.6930000000	40
82.7230000000	39
82.7530000000	36
82.7830000000	32
82.8130000000	36
82.8430000000	37
82.8730000000	32
82.9030000000	35
82.9330000000	35
82.9630000000	41
82.9930000000	38
83.0230000000	43
83.0530000000	42
83.0830000000	38
83.1130000000	47
83.1430000000	54
83.1730000000	42
83.2030000000	40
83.2330000000	47
83.2630000000	39
83.2930000000	53
83.3230000000	40
83.3530000000	64
83.3830000000	46
83.4130000000	60
83.4430000000	48
83.4730000000	55
83.5030000000	74
83.5330000000	55
83.5630000000	45
83.5930000000	54
83.6230000000	54
83.6530000000	49
83.6830000000	42
83.7130000000	54
83.7430000000	42
83.7730000000	36
83.8030000000	26
83.8330000000	56
83.8630000000	37
83.8930000000	38
83.9230000000	36
83.9530000000	44
83.9830000000	42
84.0130000000	27
84.0430000000	46
84.0730000000	27
84.1030000000	34
84.1330000000	38
84.1630000000	48
84.1930000000	44
84.2230000000	41
84.2530000000	43
84.2830000000	44
84.3130000000	32
84.3430000000	39
84.3730000000	34
84.4030000000	41
84.4330000000	44
84.4630000000	40
84.4930000000	35
84.5230000000	29
84.5530000000	33
84.5830000000	39
84.6130000000	39
84.6430000000	42
84.6730000000	34
84.7030000000	31
84.7330000000	42
84.7630000000	40
84.7930000000	36
84.8230000000	28
84.8530000000	32
84.8830000000	39
84.9130000000	38
84.9430000000	35
84.9730000000	38
85.0030000000	38
85.0330000000	29
85.0630000000	38
85.0930000000	29
85.1230000000	36
85.1530000000	36
85.1830000000	44
85.2130000000	42
85.2430000000	41
85.2730000000	42
85.3030000000	33
85.3330000000	33
85.3630000000	39
85.3930000000	35
85.4230000000	33
85.4530000000	41
85.4830000000	43
85.5130000000	22
85.5430000000	46
85.5730000000	34
85.6030000000	41
85.6330000000	35
85.6630000000	41
85.6930000000	51
85.7230000000	47
85.7530000000	50
85.7830000000	38
85.8130000000	37
85.8430000000	40
85.8730000000	37
85.9030000000	40
85.9330000000	48
85.9630000000	37
85.9930000000	36
86.0230000000	45
86.0530000000	53
86.0830000000	41
86.1130000000	31
86.1430000000	42
86.1730000000	42
86.2030000000	36
86.2330000000	32
86.2630000000	38
86.2930000000	36
86.3230000000	52
86.3530000000	47
86.3830000000	37
86.4130000000	43
86.4430000000	41
86.4730000000	41
86.5030000000	44
86.5330000000	36
86.5630000000	47
86.5930000000	40
86.6230000000	46
86.6530000000	38
86.6830000000	34
86.7130000000	46
86.7430000000	30
86.7730000000	36
86.8030000000	49
86.8330000000	42
86.8630000000	43
86.8930000000	46
86.9230000000	40
86.9530000000	42
86.9830000000	34
87.0130000000	42
87.0430000000	43
87.0730000000	40
87.1030000000	41
87.1330000000	46
87.1630000000	38
87.1930000000	39
87.2230000000	45
87.2530000000	36
87.2830000000	38
87.3130000000	35
87.3430000000	39
87.3730000000	31
87.4030000000	41
87.4330000000	39
87.4630000000	41
87.4930000000	36
87.5230000000	35
87.5530000000	45
87.5830000000	49
87.6130000000	45
87.6430000000	30
87.6730000000	34
87.7030000000	47
87.7330000000	49
87.7630000000	44
87.7930000000	41
87.8230000000	45
87.8530000000	50
87.8830000000	31
87.9130000000	38
87.9430000000	35
87.9730000000	40
88.0030000000	32
88.0330000000	48
88.0630000000	38
88.0930000000	36
88.1230000000	44
88.1530000000	31
88.1830000000	41
88.2130000000	35
88.2430000000	43
88.2730000000	52
88.3030000000	45
88.3330000000	45
88.3630000000	55
88.3930000000	52
88.4230000000	43
88.4530000000	46
88.4830000000	42
88.5130000000	35
88.5430000000	62
88.5730000000	46
88.6030000000	44
88.6330000000	50
88.6630000000	54
88.6930000000	34
88.7230000000	29
88.7530000000	48
88.7830000000	46
88.8130000000	36
88.8430000000	38
88.8730000000	41
88.9030000000	46
88.9330000000	49
88.9630000000	37
88.9930000000	36
89.0230000000	41
89.0530000000	34
89.0830000000	43
89.1130000000	37
89.1430000000	42
89.1730000000	43
89.2030000000	37
89.2330000000	30
89.2630000000	33
89.2930000000	34
89.3230000000	39
89.3530000000	38
89.3830000000	38
89.4130000000	41
89.4430000000	42
89.4730000000	58
89.5030000000	48
89.5330000000	51
89.5630000000	57
89.5930000000	47
89.6230000000	41
89.6530000000	47
89.6830000000	53
89.7130000000	52
89.7430000000	55
89.7730000000	48
89.8030000000	48
89.8330000000	51
89.8630000000	43
89.8930000000	52
89.9230000000	52
89.9530000000	38
89.9830000000	38
90.0130000000	34
90.0430000000	41
90.0730000000	53
90.1030000000	36
90.1330000000	40
90.1630000000	40
90.1930000000	32
90.2230000000	35
90.2530000000	41
90.2830000000	37
90.3130000000	42
90.3430000000	36
90.3730000000	31
90.4030000000	34
90.4330000000	33
90.4630000000	42
90.4930000000	44
90.5230000000	50
90.5530000000	45
90.5830000000	36
90.6130000000	37
90.6430000000	39
90.6730000000	37
90.7030000000	39
90.7330000000	35
90.7630000000	45
90.7930000000	41
90.8230000000	38
90.8530000000	43
90.8830000000	43
90.9130000000	41
90.9430000000	40
90.9730000000	39
91.0030000000	42
91.0330000000	37
91.0630000000	32
91.0930000000	41
91.1230000000	52
91.1530000000	31
91.1830000000	53
91.2130000000	41
91.2430000000	47
91.2730000000	36
91.3030000000	47
91.3330000000	45
91.3630000000	39
91.3930000000	31
91.4230000000	43
91.4530000000	43
91.4830000000	37
91.5130000000	37
91.5430000000	39
91.5730000000	42
91.6030000000	46
91.6330000000	46
91.6630000000	42
91.6930000000	38
91.7230000000	34
91.7530000000	30
91.7830000000	34
91.8130000000	40
91.8430000000	47
91.8730000000	39
91.9030000000	43
91.9330000000	31
91.9630000000	35
91.9930000000	31
92.0230000000	32
92.0530000000	34
92.0830000000	29
92.1130000000	37
92.1430000000	48
92.1730000000	42
92.2030000000	29
92.2330000000	44
92.2630000000	39
92.2930000000	48
92.3230000000	36
92.3530000000	36
92.3830000000	39
92.4130000000	29
92.4430000000	44
92.4730000000	41
92.5030000000	33
92.5330000000	44
92.5630000000	42
92.5930000000	55
92.6230000000	40
92.6530000000	33
92.6830000000	40
92.7130000000	37
92.7430000000	43
92.7730000000	35
92.8030000000	35
92.8330000000	43
92.8630000000	37
92.8930000000	49
92.9230000000	30
92.9530000000	30
92.9830000000	38
93.0130000000	31
93.0430000000	39
93.0730000000	34
93.1030000000	31
93.1330000000	34
93.1630000000	34
93.1930000000	36
93.2230000000	36
93.2530000000	32
93.2830000000	33
93.3130000000	39
93.3430000000	40
93.3730000000	41
93.4030000000	38
93.4330000000	42
93.4630000000	47
93.4930000000	35
93.5230000000	34
93.5530000000	35
93.5830000000	39
93.6130000000	36
93.6430000000	43
93.6730000000	39
93.7030000000	30
93.7330000000	42
93.7630000000	37
93.7930000000	37
93.8230000000	40
93.8530000000	46
93.8830000000	41
93.9130000000	45
93.9430000000	34
93.9730000000	31
94.0030000000	38
94.0330000000	47
94.0630000000	31
94.0930000000	37
94.1230000000	39
94.1530000000	40
94.1830000000	32
94.2130000000	37
94.2430000000	34
94.2730000000	41
94.3030000000	44
94.3330000000	36
94.3630000000	38
94.3930000000	36
94.4230000000	31
94.4530000000	35
94.4830000000	30
94.5130000000	34
94.5430000000	27
94.5730000000	30
94.6030000000	39
94.6330000000	37
94.6630000000	41
94.6930000000	42
94.7230000000	33
94.7530000000	36
94.7830000000	46
94.8130000000	39
94.8430000000	40
94.8730000000	30
94.9030000000	36
94.9330000000	34
94.9630000000	42
94.9930000000	34
95.0230000000	42
95.0530000000	33
95.0830000000	32
95.1130000000	31
95.1430000000	40
95.1730000000	41
95.2030000000	36
95.2330000000	26
95.2630000000	45
95.2930000000	40
95.3230000000	33
95.3530000000	34
95.3830000000	48
95.4130000000	35
95.4430000000	45
95.4730000000	43
95.5030000000	38
95.5330000000	42
95.5630000000	36
95.5930000000	38
95.6230000000	47
95.6530000000	47
95.6830000000	43
95.7130000000	37
95.7430000000	42
95.7730000000	45
95.8030000000	27
95.8330000000	42
95.8630000000	36
95.8930000000	26
95.9230000000	33
95.9530000000	32
95.9830000000	33
96.0130000000	36
96.0430000000	30
96.0730000000	31
96.1030000000	40
96.1330000000	38
96.1630000000	37
96.1930000000	42
96.2230000000	35
96.2530000000	41
96.2830000000	25
96.3130000000	32
96.3430000000	51
96.3730000000	31
96.4030000000	36
96.4330000000	38
96.4630000000	35
96.4930000000	37
96.5230000000	34
96.5530000000	34
96.5830000000	52
96.6130000000	38
96.6430000000	45
96.6730000000	45
96.7030000000	44
96.7330000000	40
96.7630000000	47
96.7930000000	43
96.8230000000	34
96.8530000000	42
96.8830000000	44
96.9130000000	42
96.9430000000	39
96.9730000000	43
97.0030000000	43
97.0330000000	37
97.0630000000	41
97.0930000000	40
97.1230000000	34
97.1530000000	32
97.1830000000	48
97.2130000000	34
97.2430000000	40
97.2730000000	37
97.3030000000	27
97.3330000000	46
97.3630000000	51
97.3930000000	37
97.4230000000	36
97.4530000000	38
97.4830000000	34
97.5130000000	34
97.5430000000	37
97.5730000000	26
97.6030000000	40
97.6330000000	40
97.6630000000	31
97.6930000000	38
97.7230000000	46
97.7530000000	37
97.7830000000	39
97.8130000000	35
97.8430000000	36
97.8730000000	37
97.9030000000	43
97.9330000000	32
97.9630000000	33
97.9930000000	36
98.0230000000	30
98.0530000000	36
98.0830000000	40
98.1130000000	36
98.1430000000	25
98.1730000000	36
98.2030000000	42
98.2330000000	37
98.2630000000	36
98.2930000000	42
98.3230000000	38
98.3530000000	33
98.3830000000	31
98.4130000000	47
98.4430000000	40
98.4730000000	38
98.5030000000	37
98.5330000000	37
98.5630000000	36
98.5930000000	41
98.6230000000	38
98.6530000000	39
98.6830000000	39
98.7130000000	36
98.7430000000	33
98.7730000000	36
98.8030000000	41
98.8330000000	41
98.8630000000	38
98.8930000000	37
98.9230000000	46
98.9530000000	38
98.9830000000	34
99.0130000000	27
99.0430000000	33
99.0730000000	50
99.1030000000	43
99.1330000000	40
99.1630000000	36
99.1930000000	28
99.2230000000	41
99.2530000000	44
99.2830000000	33
99.3130000000	34
99.3430000000	38
99.3730000000	39
99.4030000000	39
99.4330000000	34
99.4630000000	55
99.4930000000	30
99.5230000000	28
99.5530000000	33
99.5830000000	23
99.6130000000	38
99.6430000000	31
99.6730000000	34
99.7030000000	37
99.7330000000	29
99.7630000000	44
99.7930000000	37
99.8230000000	44
99.8530000000	38
99.8830000000	41
99.9130000000	34
99.9430000000	23
99.9730000000	34
100.0030000000	36
100.0330000000	33
100.0630000000	36
100.0930000000	41
100.1230000000	37
100.1530000000	29
100.1830000000	36
100.2130000000	42
100.2430000000	31
100.2730000000	32
100.3030000000	34
100.3330000000	35
100.3630000000	28
100.3930000000	44
100.4230000000	36
100.4530000000	37
100.4830000000	30
100.5130000000	31
100.5430000000	28
100.5730000000	32
100.6030000000	34
100.6330000000	42
100.6630000000	38
100.6930000000	31
100.7230000000	43
100.7530000000	33
100.7830000000	29
100.8130000000	50
100.8430000000	34
100.8730000000	30
100.9030000000	34
100.9330000000	34
100.9630000000	33
100.9930000000	24
101.0230000000	38
101.0530000000	31
101.0830000000	44
101.1130000000	46
101.1430000000	37
101.1730000000	28
101.2030000000	37
101.2330000000	24
101.2630000000	39
101.2930000000	23
101.3230000000	32
101.3530000000	42
101.3830000000	34
101.4130000000	38
101.4430000000	35
101.4730000000	35
101.5030000000	38
101.5330000000	39
101.5630000000	39
101.5930000000	37
101.6230000000	43
101.6530000000	36
101.6830000000	25
101.7130000000	36
101.7430000000	24
101.7730000000	32
101.8030000000	41
101.8330000000	33
101.8630000000	52
101.8930000000	46
101.9230000000	37
101.9530000000	37
101.9830000000	34
102.0130000000	25
102.0430000000	39
102.0730000000	34
102.1030000000	36
102.1330000000	34
102.1630000000	32
102.1930000000	42
102.2230000000	40
102.2530000000	53
102.2830000000	32
102.3130000000	38
102.3430000000	40
102.3730000000	33
102.4030000000	36
102.4330000000	30
102.4630000000	32
102.4930000000	34
102.5230000000	32
102.5530000000	30
102.5830000000	29
102.6130000000	29
102.6430000000	46
102.6730000000	41
102.7030000000	32
102.7330000000	33
102.7630000000	33
102.7930000000	38
102.8230000000	35
102.8530000000	44
102.8830000000	35
102.9130000000	35
102.9430000000	39
102.9730000000	44
103.0030000000	38
103.0330000000	40
103.0630000000	37
103.0930000000	40
103.1230000000	42
103.1530000000	33
103.1830000000	33
103.2130000000	39
103.2430000000	43
103.2730000000	35
103.3030000000	30
103.3330000000	42
103.3630000000	27
103.3930000000	45
103.4230000000	34
103.4530000000	27
103.4830000000	35
103.5130000000	38
103.5430000000	41
103.5730000000	35
103.6030000000	31
103.6330000000	41
103.6630000000	37
103.6930000000	33
103.7230000000	38
103.7530000000	35
103.7830000000	36
103.8130000000	40
103.8430000000	44
103.8730000000	35
103.9030000000	36
103.9330000000	30
103.9630000000	40
103.9930000000	31
104.0230000000	47
104.0530000000	37
104.0830000000	28
104.1130000000	23
104.1430000000	36
104.1730000000	38
104.2030000000	41
104.2330000000	42
104.2630000000	40
104.2930000000	38
104.3230000000	41
104.3530000000	31
104.3830000000	35
104.4130000000	29
104.4430000000	39
104.4730000000	46
104.5030000000	32
104.5330000000	37
104.5630000000	41
104.5930000000	39
104.6230000000	58
104.6530000000	50
104.6830000000	47
104.7130000000	35
104.7430000000	40
104.7730000000	36
104.8030000000	39
104.8330000000	45
104.8630000000	30
104.8930000000	40
104.9230000000	46
104.9530000000	45
104.9830000000	36
105.0130000000	36
105.0430000000	45
105.0730000000	44
105.1030000000	44
105.1330000000	37
105.1630000000	33
105.1930000000	39
105.2230000000	36
105.2530000000	44
105.2830000000	36
105.3130000000	48
105.3430000000	37
105.3730000000	42
105.4030000000	35
105.4330000000	30
105.4630000000	33
105.4930000000	38
105.5230000000	40
105.5530000000	43
105.5830000000	32
105.6130000000	32
105.6430000000	42
105.6730000000	40
105.7030000000	37
105.7330000000	35
105.7630000000	33
105.7930000000	39
105.8230000000	33
105.8530000000	46
105.8830000000	38
105.9130000000	32
105.9430000000	39
105.9730000000	38
106.0030000000	38
106.0330000000	45
106.0630000000	35
106.0930000000	38
106.1230000000	36
106.1530000000	38
106.1830000000	34
106.2130000000	38
106.2430000000	34
106.2730000000	35
106.3030000000	46
106.3330000000	40
106.3630000000	36
106.3930000000	35
106.4230000000	40
106.4530000000	33
106.4830000000	32
106.5130000000	32
106.5430000000	35
106.5730000000	42
106.6030000000	35
106.6330000000	39
106.6630000000	33
106.6930000000	36
106.7230000000	40
106.7530000000	42
106.7830000000	35
106.8130000000	44
106.8430000000	40
106.8730000000	50
106.9030000000	59
106.9330000000	46
106.9630000000	53
106.9930000000	44
107.0230000000	35
107.0530000000	44
107.0830000000	43
107.1130000000	41
107.1430000000	43
107.1730000000	37
107.2030000000	49
107.2330000000	39
107.2630000000	54
107.2930000000	44
107.3230000000	42
107.3530000000	36
107.3830000000	38
107.4130000000	34
107.4430000000	37
107.4730000000	36
107.5030000000	27
107.5330000000	43
107.5630000000	37
107.5930000000	39
107.6230000000	46
107.6530000000	40
107.6830000000	28
107.7130000000	37
107.7430000000	36
107.7730000000	31
107.8030000000	44
107.8330000000	51
107.8630000000	40
107.8930000000	34
107.9230000000	41
107.9530000000	46
107.9830000000	41
108.0130000000	31
108.0430000000	32
108.0730000000	42
108.1030000000	40
108.1330000000	50
108.1630000000	51
108.1930000000	34
108.2230000000	41
108.2530000000	43
108.2830000000	37
108.3130000000	31
108.3430000000	39
108.3730000000	42
108.4030000000	38
108.4330000000	46
108.4630000000	34
108.4930000000	38
108.5230000000	34
108.5530000000	30
108.5830000000	40
108.6130000000	34
108.6430000000	38
108.6730000000	34
108.7030000000	42
108.7330000000	27
108.7630000000	42
108.7930000000	36
108.8230000000	31
108.8530000000	33
108.8830000000	39
108.9130000000	27
108.9430000000	38
108.9730000000	36
109.0030000000	35
109.0330000000	41
109.0630000000	35
109.0930000000	48
109.1230000000	38
109.1530000000	35
109.1830000000	39
109.2130000000	36
109.2430000000	47
109.2730000000	38
109.3030000000	38
109.3330000000	49
109.3630000000	30
109.3930000000	43
109.4230000000	34
109.4530000000	34
109.4830000000	40
109.5130000000	37
109.5430000000	34
109.5730000000	41
109.6030000000	44
109.6330000000	41
109.6630000000	35
109.6930000000	37
109.7230000000	49
109.7530000000	41
109.7830000000	36
109.8130000000	29
109.8430000000	36
109.8730000000	40
109.9030000000	44
109.9330000000	35
109.9630000000	48
109.9930000000	47
110.0230000000	46
110.0530000000	38
110.0830000000	47
110.1130000000	39
110.1430000000	41
110.1730000000	45
110.2030000000	36
110.2330000000	42
110.2630000000	42
110.2930000000	49
110.3230000000	49
110.3530000000	41
110.3830000000	39
110.4130000000	44
110.4430000000	41
110.4730000000	39
110.5030000000	43
110.5330000000	35
110.5630000000	37
110.5930000000	33
110.6230000000	41
110.6530000000	30
110.6830000000	43
110.7130000000	41
110.7430000000	30
110.7730000000	38
110.8030000000	41
110.8330000000	42
110.8630000000	42
110.8930000000	37
110.9230000000	33
110.9530000000	38
110.9830000000	45
111.0130000000	37
111.0430000000	33
111.0730000000	39
111.1030000000	43
111.1330000000	47
111.1630000000	48
111.1930000000	43
111.2230000000	45
111.2530000000	50
111.2830000000	36
111.3130000000	44
111.3430000000	41
111.3730000000	39
111.4030000000	47
111.4330000000	41
111.4630000000	38
111.4930000000	49
111.5230000000	39
111.5530000000	43
111.5830000000	50
111.6130000000	41
111.6430000000	47
111.6730000000	43
111.7030000000	38
111.7330000000	42
111.7630000000	38
111.7930000000	41
111.8230000000	30
111.8530000000	46
111.8830000000	41
111.9130000000	46
111.9430000000	35
111.9730000000	37
112.0030000000	34
112.0330000000	49
112.0630000000	50
112.0930000000	29
112.1230000000	39
112.1530000000	43
112.1830000000	40
112.2130000000	52
112.2430000000	49
112.2730000000	29
112.3030000000	35
112.3330000000	31
112.3630000000	35
112.3930000000	38
112.4230000000	35
112.4530000000	50
112.4830000000	44
112.5130000000	40
112.5430000000	43
112.5730000000	39
112.6030000000	32
112.6330000000	38
112.6630000000	42
112.6930000000	32
112.7230000000	31
112.7530000000	33
112.7830000000	38
112.8130000000	55
112.8430000000	46
112.8730000000	38
112.9030000000	48
112.9330000000	46
112.9630000000	38
112.9930000000	37
113.0230000000	42
113.0530000000	55
113.0830000000	49
113.1130000000	57
113.1430000000	60
113.1730000000	68
113.2030000000	61
113.2330000000	69
113.2630000000	69
113.2930000000	52
113.3230000000	53
113.3530000000	53
113.3830000000	54
113.4130000000	61
113.4430000000	61
113.4730000000	50
113.5030000000	53
113.5330000000	54
113.5630000000	53
113.5930000000	46
113.6230000000	33
113.6530000000	48
113.6830000000	51
113.7130000000	44
113.7430000000	48
113.7730000000	44
113.8030000000	46
113.8330000000	43
113.8630000000	44
113.8930000000	47
113.9230000000	40
113.9530000000	38
113.9830000000	49
114.0130000000	44
114.0430000000	42
114.0730000000	50
114.1030000000	42
114.1330000000	41
114.1630000000	37
114.1930000000	36
114.2230000000	34
114.2530000000	38
114.2830000000	42
114.3130000000	40
114.3430000000	49
114.3730000000	59
114.4030000000	43
114.4330000000	30
114.4630000000	1
114.4930000000	1
114.5230000000	1
114.5530000000	1
114.5830000000	1
