0.3130000000	1
0.3430000000	1
0.3730000000	1
0.4030000000	1
0.4330000000	2
0.4630000000	1
0.4930000000	1
0.5230000000	1
0.5530000000	1
0.5830000000	1
0.6130000000	1
0.6430000000	1
0.6730000000	1
0.7030000000	1
0.7330000000	1
0.7630000000	2
0.7930000000	1
0.8230000000	1
0.8530000000	1
0.8830000000	1
0.9130000000	1
0.9430000000	3
0.9730000000	1
1.0030000000	2
1.0330000000	1
1.0630000000	1
1.0930000000	1
1.1230000000	2
1.1530000000	1
1.1830000000	1
1.2130000000	2
1.2430000000	1
1.2730000000	1
1.3030000000	1
1.3330000000	1
1.3630000000	1
1.3930000000	2
1.4230000000	1
1.4530000000	2
1.4830000000	3
1.5130000000	1
1.5430000000	2
1.5730000000	1
1.6030000000	1
1.6330000000	1
1.6630000000	1
1.6930000000	1
1.7230000000	2
1.7530000000	1
1.7830000000	1
1.8130000000	2
1.8430000000	2
1.8730000000	2
1.9030000000	2
1.9330000000	1
1.9630000000	1
1.9930000000	2
2.0230000000	1
2.0530000000	1
2.0830000000	2
2.1130000000	1
2.1430000000	1
2.1730000000	1
2.2030000000	1
2.2330000000	2
2.2630000000	2
2.2930000000	1
2.3230000000	3
2.3530000000	3
2.3830000000	1
2.4130000000	1
2.4430000000	1
2.4730000000	2
2.5030000000	2
2.5330000000	1
2.5630000000	2
2.5930000000	2
2.6230000000	1
2.6530000000	1
2.6830000000	2
2.7130000000	3
2.7430000000	2
2.7730000000	1
2.8030000000	2
2.8330000000	1
2.8630000000	2
2.8930000000	2
2.9230000000	1
2.9530000000	2
2.9830000000	3
3.0130000000	1
3.0430000000	1
3.0730000000	2
3.1030000000	1
3.1330000000	1
3.1630000000	1
3.1930000000	2
3.2230000000	2
3.2530000000	3
3.2830000000	1
3.3130000000	4
3.3430000000	1
3.3730000000	2
3.4030000000	1
3.4330000000	2
3.4630000000	3
3.4930000000	1
3.5230000000	2
3.5530000000	4
3.5830000000	2
3.6130000000	2
3.6430000000	1
3.6730000000	2
3.7030000000	4
3.7330000000	1
3.7630000000	2
3.7930000000	1
3.8230000000	3
3.8530000000	2
3.8830000000	1
3.9130000000	2
3.9430000000	1
3.9730000000	3
4.0030000000	3
4.0330000000	5
4.0630000000	4
4.0930000000	2
4.1230000000	5
4.1530000000	2
4.1830000000	3
4.2130000000	4
4.2430000000	2
4.2730000000	4
4.3030000000	3
4.3330000000	5
4.3630000000	4
4.3930000000	4
4.4230000000	3
4.4530000000	7
4.4830000000	14
4.5130000000	22
4.5430000000	41
4.5730000000	55
4.6030000000	67
4.6330000000	91
4.6630000000	103
4.6930000000	114
4.7230000000	140
4.7530000000	128
4.7830000000	142
4.8130000000	133
4.8430000000	137
4.8730000000	135
4.9030000000	126
4.9330000000	164
4.9630000000	154
4.9930000000	136
5.0230000000	148
5.0530000000	124
5.0830000000	142
5.1130000000	122
5.1430000000	133
5.1730000000	142
5.2030000000	146
5.2330000000	147
5.2630000000	145
5.2930000000	151
5.3230000000	135
5.3530000000	169
5.3830000000	139
5.4130000000	137
5.4430000000	138
5.4730000000	157
5.5030000000	146
5.5330000000	131
5.5630000000	139
5.5930000000	148
5.6230000000	151
5.6530000000	156
5.6830000000	149
5.7130000000	149
5.7430000000	135
5.7730000000	142
5.8030000000	143
5.8330000000	148
5.8630000000	164
5.8930000000	158
5.9230000000	131
5.9530000000	142
5.9830000000	154
6.0130000000	163
6.0430000000	150
6.0730000000	132
6.1030000000	139
6.1330000000	141
6.1630000000	132
6.1930000000	134
6.2230000000	158
6.2530000000	166
6.2830000000	131
6.3130000000	166
6.3430000000	161
6.3730000000	161
6.4030000000	138
6.4330000000	148
6.4630000000	156
6.4930000000	147
6.5230000000	149
6.5530000000	157
6.5830000000	149
6.6130000000	149
6.6430000000	139
6.6730000000	138
6.7030000000	159
6.7330000000	155
6.7630000000	163
6.7930000000	127
6.8230000000	117
6.8530000000	137
6.8830000000	152
6.9130000000	158
6.9430000000	144
6.9730000000	146
7.0030000000	153
7.0330000000	152
7.0630000000	154
7.0930000000	142
7.1230000000	155
7.1530000000	151
7.1830000000	145
7.2130000000	158
7.2430000000	146
7.2730000000	140
7.3030000000	141
7.3330000000	133
7.3630000000	137
7.3930000000	145
7.4230000000	148
7.4530000000	135
7.4830000000	130
7.5130000000	132
7.5430000000	135
7.5730000000	149
7.6030000000	161
7.6330000000	148
7.6630000000	144
7.6930000000	134
7.7230000000	132
7.7530000000	146
7.7830000000	142
7.8130000000	136
7.8430000000	141
7.8730000000	151
7.9030000000	147
7.9330000000	134
7.9630000000	131
7.9930000000	146
8.0230000000	164
8.0530000000	146
8.0830000000	144
8.1130000000	134
8.1430000000	142
8.1730000000	146
8.2030000000	143
8.2330000000	150
8.2630000000	130
8.2930000000	146
8.3230000000	121
8.3530000000	160
8.3830000000	147
8.4130000000	127
8.4430000000	148
8.4730000000	152
8.5030000000	131
8.5330000000	131
8.5630000000	148
8.5930000000	146
8.6230000000	141
8.6530000000	149
8.6830000000	150
8.7130000000	156
8.7430000000	124
8.7730000000	159
8.8030000000	147
8.8330000000	121
8.8630000000	156
8.8930000000	165
8.9230000000	141
8.9530000000	154
8.9830000000	153
9.0130000000	149
9.0430000000	169
9.0730000000	155
9.1030000000	152
9.1330000000	148
9.1630000000	134
9.1930000000	132
9.2230000000	161
9.2530000000	145
9.2830000000	124
9.3130000000	148
9.3430000000	174
9.3730000000	153
9.4030000000	132
9.4330000000	139
9.4630000000	154
9.4930000000	150
9.5230000000	158
9.5530000000	181
9.5830000000	151
9.6130000000	142
9.6430000000	137
9.6730000000	141
9.7030000000	157
9.7330000000	145
9.7630000000	143
9.7930000000	150
9.8230000000	164
9.8530000000	145
9.8830000000	139
9.9130000000	150
9.9430000000	130
9.9730000000	138
10.0030000000	123
10.0330000000	140
10.0630000000	149
10.0930000000	144
10.1230000000	163
10.1530000000	157
10.1830000000	158
10.2130000000	131
10.2430000000	151
10.2730000000	152
10.3030000000	162
10.3330000000	134
10.3630000000	150
10.3930000000	134
10.4230000000	159
10.4530000000	139
10.4830000000	149
10.5130000000	131
10.5430000000	135
10.5730000000	140
10.6030000000	128
10.6330000000	162
10.6630000000	137
10.6930000000	137
10.7230000000	171
10.7530000000	135
10.7830000000	137
10.8130000000	143
10.8430000000	146
10.8730000000	156
10.9030000000	124
10.9330000000	131
10.9630000000	164
10.9930000000	145
11.0230000000	159
11.0530000000	167
11.0830000000	149
11.1130000000	184
11.1430000000	158
11.1730000000	148
11.2030000000	173
11.2330000000	158
11.2630000000	130
11.2930000000	145
11.3230000000	133
11.3530000000	145
11.3830000000	141
11.4130000000	153
11.4430000000	148
11.4730000000	152
11.5030000000	151
11.5330000000	169
11.5630000000	136
11.5930000000	153
11.6230000000	172
11.6530000000	144
11.6830000000	153
11.7130000000	126
11.7430000000	139
11.7730000000	129
11.8030000000	141
11.8330000000	130
11.8630000000	136
11.8930000000	129
11.9230000000	147
11.9530000000	140
11.9830000000	129
12.0130000000	154
12.0430000000	143
12.0730000000	132
12.1030000000	149
12.1330000000	145
12.1630000000	134
12.1930000000	145
12.2230000000	161
12.2530000000	148
12.2830000000	145
12.3130000000	136
12.3430000000	139
12.3730000000	145
12.4030000000	159
12.4330000000	142
12.4630000000	129
12.4930000000	140
12.5230000000	147
12.5530000000	166
12.5830000000	148
12.6130000000	136
12.6430000000	138
12.6730000000	150
12.7030000000	160
12.7330000000	143
12.7630000000	149
12.7930000000	144
12.8230000000	124
12.8530000000	140
12.8830000000	156
12.9130000000	164
12.9430000000	149
12.9730000000	133
13.0030000000	137
13.0330000000	145
13.0630000000	163
13.0930000000	158
13.1230000000	152
13.1530000000	165
13.1830000000	145
13.2130000000	138
13.2430000000	130
13.2730000000	135
13.3030000000	154
13.3330000000	161
13.3630000000	134
13.3930000000	148
13.4230000000	142
13.4530000000	151
13.4830000000	143
13.5130000000	142
13.5430000000	157
13.5730000000	163
13.6030000000	134
13.6330000000	155
13.6630000000	150
13.6930000000	137
13.7230000000	156
13.7530000000	172
13.7830000000	156
13.8130000000	150
13.8430000000	158
13.8730000000	154
13.9030000000	151
13.9330000000	150
13.9630000000	156
13.9930000000	138
14.0230000000	130
14.0530000000	158
14.0830000000	146
14.1130000000	141
14.1430000000	140
14.1730000000	145
14.2030000000	135
14.2330000000	153
14.2630000000	143
14.2930000000	159
14.3230000000	166
14.3530000000	138
14.3830000000	149
14.4130000000	128
14.4430000000	120
14.4730000000	157
14.5030000000	146
14.5330000000	157
14.5630000000	135
14.5930000000	146
14.6230000000	168
14.6530000000	155
14.6830000000	149
14.7130000000	140
14.7430000000	165
14.7730000000	164
14.8030000000	159
14.8330000000	136
14.8630000000	160
14.8930000000	140
14.9230000000	148
14.9530000000	150
14.9830000000	159
15.0130000000	179
15.0430000000	149
15.0730000000	140
15.1030000000	158
15.1330000000	150
15.1630000000	148
15.1930000000	140
15.2230000000	174
15.2530000000	159
15.2830000000	162
15.3130000000	165
15.3430000000	141
15.3730000000	128
15.4030000000	141
15.4330000000	149
15.4630000000	180
15.4930000000	142
15.5230000000	152
15.5530000000	142
15.5830000000	150
15.6130000000	160
15.6430000000	157
15.6730000000	146
15.7030000000	139
15.7330000000	163
15.7630000000	167
15.7930000000	145
15.8230000000	129
15.8530000000	151
15.8830000000	160
15.9130000000	139
15.9430000000	153
15.9730000000	135
16.0030000000	128
16.0330000000	124
16.0630000000	150
16.0930000000	139
16.1230000000	144
16.1530000000	159
16.1830000000	147
16.2130000000	131
16.2430000000	147
16.2730000000	157
16.3030000000	161
16.3330000000	139
16.3630000000	145
16.3930000000	149
16.4230000000	152
16.4530000000	141
16.4830000000	143
16.5130000000	121
16.5430000000	139
16.5730000000	139
16.6030000000	156
16.6330000000	147
16.6630000000	139
16.6930000000	158
16.7230000000	145
16.7530000000	136
16.7830000000	141
16.8130000000	145
16.8430000000	142
16.8730000000	142
16.9030000000	142
16.9330000000	131
16.9630000000	145
16.9930000000	160
17.0230000000	137
17.0530000000	131
17.0830000000	151
17.1130000000	138
17.1430000000	129
17.1730000000	127
17.2030000000	154
17.2330000000	141
17.2630000000	150
17.2930000000	153
17.3230000000	142
17.3530000000	156
17.3830000000	140
17.4130000000	159
17.4430000000	146
17.4730000000	144
17.5030000000	166
17.5330000000	133
17.5630000000	137
17.5930000000	165
17.6230000000	162
17.6530000000	151
17.6830000000	143
17.7130000000	138
17.7430000000	143
17.7730000000	143
17.8030000000	134
17.8330000000	145
17.8630000000	149
17.8930000000	135
17.9230000000	140
17.9530000000	137
17.9830000000	130
18.0130000000	125
18.0430000000	115
18.0730000000	122
18.1030000000	134
18.1330000000	152
18.1630000000	136
18.1930000000	136
18.2230000000	141
18.2530000000	154
18.2830000000	139
18.3130000000	139
18.3430000000	114
18.3730000000	140
18.4030000000	151
18.4330000000	153
18.4630000000	145
18.4930000000	155
18.5230000000	134
18.5530000000	137
18.5830000000	129
18.6130000000	147
18.6430000000	155
18.6730000000	123
18.7030000000	141
18.7330000000	156
18.7630000000	146
18.7930000000	143
18.8230000000	133
18.8530000000	150
18.8830000000	125
18.9130000000	147
18.9430000000	167
18.9730000000	146
19.0030000000	156
19.0330000000	137
19.0630000000	145
19.0930000000	127
19.1230000000	126
19.1530000000	143
19.1830000000	149
19.2130000000	158
19.2430000000	146
19.2730000000	157
19.3030000000	157
19.3330000000	164
19.3630000000	169
19.3930000000	149
19.4230000000	199
19.4530000000	178
19.4830000000	252
19.5130000000	243
19.5430000000	336
19.5730000000	363
19.6030000000	398
19.6330000000	347
19.6630000000	309
19.6930000000	242
19.7230000000	239
19.7530000000	178
19.7830000000	211
19.8130000000	199
19.8430000000	158
19.8730000000	146
19.9030000000	135
19.9330000000	145
19.9630000000	149
19.9930000000	169
20.0230000000	137
20.0530000000	143
20.0830000000	152
20.1130000000	160
20.1430000000	150
20.1730000000	144
20.2030000000	145
20.2330000000	140
20.2630000000	160
20.2930000000	159
20.3230000000	148
20.3530000000	145
20.3830000000	149
20.4130000000	155
20.4430000000	163
20.4730000000	144
20.5030000000	156
20.5330000000	146
20.5630000000	130
20.5930000000	140
20.6230000000	148
20.6530000000	149
20.6830000000	158
20.7130000000	150
20.7430000000	173
20.7730000000	127
20.8030000000	152
20.8330000000	160
20.8630000000	159
20.8930000000	174
20.9230000000	163
20.9530000000	158
20.9830000000	157
21.0130000000	156
21.0430000000	155
21.0730000000	162
21.1030000000	162
21.1330000000	164
21.1630000000	161
21.1930000000	140
21.2230000000	145
21.2530000000	133
21.2830000000	174
21.3130000000	158
21.3430000000	147
21.3730000000	184
21.4030000000	153
21.4330000000	152
21.4630000000	141
21.4930000000	148
21.5230000000	158
21.5530000000	175
21.5830000000	148
21.6130000000	146
21.6430000000	170
21.6730000000	165
21.7030000000	173
21.7330000000	171
21.7630000000	161
21.7930000000	170
21.8230000000	156
21.8530000000	154
21.8830000000	161
21.9130000000	177
21.9430000000	150
21.9730000000	160
22.0030000000	170
22.0330000000	173
22.0630000000	168
22.0930000000	166
22.1230000000	157
22.1530000000	142
22.1830000000	152
22.2130000000	155
22.2430000000	163
22.2730000000	173
22.3030000000	171
22.3330000000	178
22.3630000000	163
22.3930000000	150
22.4230000000	151
22.4530000000	152
22.4830000000	164
22.5130000000	168
22.5430000000	171
22.5730000000	169
22.6030000000	193
22.6330000000	207
22.6630000000	211
22.6930000000	240
22.7230000000	231
22.7530000000	245
22.7830000000	233
22.8130000000	211
22.8430000000	180
22.8730000000	193
22.9030000000	173
22.9330000000	174
22.9630000000	176
22.9930000000	166
23.0230000000	156
23.0530000000	190
23.0830000000	174
23.1130000000	162
23.1430000000	153
23.1730000000	142
23.2030000000	155
23.2330000000	164
23.2630000000	178
23.2930000000	158
23.3230000000	178
23.3530000000	185
23.3830000000	141
23.4130000000	165
23.4430000000	177
23.4730000000	155
23.5030000000	160
23.5330000000	169
23.5630000000	141
23.5930000000	164
23.6230000000	163
23.6530000000	146
23.6830000000	169
23.7130000000	169
23.7430000000	160
23.7730000000	175
23.8030000000	163
23.8330000000	169
23.8630000000	161
23.8930000000	172
23.9230000000	187
23.9530000000	148
23.9830000000	178
24.0130000000	171
24.0430000000	157
24.0730000000	151
24.1030000000	159
24.1330000000	170
24.1630000000	178
24.1930000000	174
24.2230000000	151
24.2530000000	170
24.2830000000	166
24.3130000000	188
24.3430000000	185
24.3730000000	163
24.4030000000	155
24.4330000000	141
24.4630000000	158
24.4930000000	177
24.5230000000	176
24.5530000000	145
24.5830000000	187
24.6130000000	160
24.6430000000	166
24.6730000000	184
24.7030000000	146
24.7330000000	159
24.7630000000	170
24.7930000000	144
24.8230000000	174
24.8530000000	169
24.8830000000	175
24.9130000000	169
24.9430000000	184
24.9730000000	176
25.0030000000	170
25.0330000000	175
25.0630000000	182
25.0930000000	157
25.1230000000	153
25.1530000000	177
25.1830000000	186
25.2130000000	174
25.2430000000	165
25.2730000000	163
25.3030000000	191
25.3330000000	174
25.3630000000	155
25.3930000000	156
25.4230000000	162
25.4530000000	170
25.4830000000	161
25.5130000000	161
25.5430000000	177
25.5730000000	192
25.6030000000	190
25.6330000000	186
25.6630000000	193
25.6930000000	185
25.7230000000	159
25.7530000000	180
25.7830000000	171
25.8130000000	166
25.8430000000	159
25.8730000000	142
25.9030000000	175
25.9330000000	162
25.9630000000	168
25.9930000000	159
26.0230000000	174
26.0530000000	159
26.0830000000	185
26.1130000000	178
26.1430000000	159
26.1730000000	178
26.2030000000	195
26.2330000000	211
26.2630000000	260
26.2930000000	277
26.3230000000	370
26.3530000000	541
26.3830000000	635
26.4130000000	787
26.4430000000	1045
26.4730000000	970
26.5030000000	827
26.5330000000	612
26.5630000000	457
26.5930000000	353
26.6230000000	263
26.6530000000	223
26.6830000000	191
26.7130000000	186
26.7430000000	195
26.7730000000	189
26.8030000000	207
26.8330000000	194
26.8630000000	159
26.8930000000	156
26.9230000000	148
26.9530000000	142
26.9830000000	148
27.0130000000	150
27.0430000000	146
27.0730000000	140
27.1030000000	133
27.1330000000	139
27.1630000000	150
27.1930000000	149
27.2230000000	163
27.2530000000	174
27.2830000000	150
27.3130000000	143
27.3430000000	161
27.3730000000	149
27.4030000000	178
27.4330000000	148
27.4630000000	139
27.4930000000	153
27.5230000000	178
27.5530000000	151
27.5830000000	156
27.6130000000	154
27.6430000000	144
27.6730000000	159
27.7030000000	175
27.7330000000	165
27.7630000000	144
27.7930000000	141
27.8230000000	142
27.8530000000	122
27.8830000000	143
27.9130000000	165
27.9430000000	145
27.9730000000	159
28.0030000000	149
28.0330000000	131
28.0630000000	125
28.0930000000	140
28.1230000000	144
28.1530000000	154
28.1830000000	155
28.2130000000	148
28.2430000000	159
28.2730000000	148
28.3030000000	145
28.3330000000	133
28.3630000000	152
28.3930000000	147
28.4230000000	141
28.4530000000	137
28.4830000000	167
28.5130000000	139
28.5430000000	151
28.5730000000	130
28.6030000000	147
28.6330000000	158
28.6630000000	137
28.6930000000	167
28.7230000000	133
28.7530000000	149
28.7830000000	154
28.8130000000	176
28.8430000000	141
28.8730000000	143
28.9030000000	130
28.9330000000	146
28.9630000000	157
28.9930000000	153
29.0230000000	173
29.0530000000	130
29.0830000000	153
29.1130000000	141
29.1430000000	140
29.1730000000	146
29.2030000000	145
29.2330000000	144
29.2630000000	152
29.2930000000	136
29.3230000000	139
29.3530000000	140
29.3830000000	144
29.4130000000	150
29.4430000000	127
29.4730000000	130
29.5030000000	137
29.5330000000	148
29.5630000000	132
29.5930000000	129
29.6230000000	145
29.6530000000	148
29.6830000000	129
29.7130000000	151
29.7430000000	134
29.7730000000	139
29.8030000000	169
29.8330000000	149
29.8630000000	161
29.8930000000	144
29.9230000000	122
29.9530000000	124
29.9830000000	161
30.0130000000	127
30.0430000000	124
30.0730000000	152
30.1030000000	132
30.1330000000	143
30.1630000000	144
30.1930000000	172
30.2230000000	194
30.2530000000	236
30.2830000000	292
30.3130000000	446
30.3430000000	626
30.3730000000	862
30.4030000000	1339
30.4330000000	2054
30.4630000000	2493
30.4930000000	2759
30.5230000000	2413
30.5530000000	1885
30.5830000000	1320
30.6130000000	780
30.6430000000	554
30.6730000000	360
30.7030000000	268
30.7330000000	214
30.7630000000	191
30.7930000000	176
30.8230000000	150
30.8530000000	159
30.8830000000	136
30.9130000000	158
30.9430000000	132
30.9730000000	155
31.0030000000	128
31.0330000000	148
31.0630000000	121
31.0930000000	127
31.1230000000	128
31.1530000000	130
31.1830000000	134
31.2130000000	129
31.2430000000	117
31.2730000000	121
31.3030000000	133
31.3330000000	140
31.3630000000	143
31.3930000000	107
31.4230000000	137
31.4530000000	160
31.4830000000	137
31.5130000000	130
31.5430000000	136
31.5730000000	144
31.6030000000	137
31.6330000000	149
31.6630000000	159
31.6930000000	161
31.7230000000	232
31.7530000000	325
31.7830000000	457
31.8130000000	665
31.8430000000	991
31.8730000000	1382
31.9030000000	1559
31.9330000000	1612
31.9630000000	1384
31.9930000000	1118
32.0230000000	834
32.0530000000	699
32.0830000000	696
32.1130000000	757
32.1430000000	905
32.1730000000	1110
32.2030000000	1152
32.2330000000	1104
32.2630000000	878
32.2930000000	606
32.3230000000	449
32.3530000000	353
32.3830000000	235
32.4130000000	196
32.4430000000	170
32.4730000000	130
32.5030000000	127
32.5330000000	126
32.5630000000	121
32.5930000000	106
32.6230000000	112
32.6530000000	142
32.6830000000	132
32.7130000000	125
32.7430000000	95
32.7730000000	117
32.8030000000	102
32.8330000000	108
32.8630000000	101
32.8930000000	107
32.9230000000	103
32.9530000000	106
32.9830000000	128
33.0130000000	104
33.0430000000	98
33.0730000000	103
33.1030000000	95
33.1330000000	104
33.1630000000	103
33.1930000000	125
33.2230000000	131
33.2530000000	116
33.2830000000	113
33.3130000000	126
33.3430000000	115
33.3730000000	137
33.4030000000	129
33.4330000000	120
33.4630000000	138
33.4930000000	125
33.5230000000	113
33.5530000000	102
33.5830000000	112
33.6130000000	110
33.6430000000	103
33.6730000000	99
33.7030000000	97
33.7330000000	96
33.7630000000	106
33.7930000000	101
33.8230000000	97
33.8530000000	102
33.8830000000	83
33.9130000000	100
33.9430000000	110
33.9730000000	108
34.0030000000	95
34.0330000000	109
34.0630000000	107
34.0930000000	101
34.1230000000	104
34.1530000000	87
34.1830000000	89
34.2130000000	106
34.2430000000	104
34.2730000000	107
34.3030000000	97
34.3330000000	97
34.3630000000	102
34.3930000000	110
34.4230000000	98
34.4530000000	98
34.4830000000	101
34.5130000000	99
34.5430000000	98
34.5730000000	102
34.6030000000	112
34.6330000000	103
34.6630000000	108
34.6930000000	93
34.7230000000	97
34.7530000000	105
34.7830000000	96
34.8130000000	102
34.8430000000	93
34.8730000000	83
34.9030000000	102
34.9330000000	103
34.9630000000	110
34.9930000000	109
35.0230000000	115
35.0530000000	99
35.0830000000	111
35.1130000000	110
35.1430000000	93
35.1730000000	97
35.2030000000	96
35.2330000000	112
35.2630000000	126
35.2930000000	166
35.3230000000	184
35.3530000000	204
35.3830000000	261
35.4130000000	270
35.4430000000	261
35.4730000000	231
35.5030000000	200
35.5330000000	184
35.5630000000	160
35.5930000000	125
35.6230000000	113
35.6530000000	105
35.6830000000	91
35.7130000000	98
35.7430000000	92
35.7730000000	90
35.8030000000	106
35.8330000000	98
35.8630000000	91
35.8930000000	114
35.9230000000	100
35.9530000000	104
35.9830000000	102
36.0130000000	82
36.0430000000	97
36.0730000000	106
36.1030000000	99
36.1330000000	79
36.1630000000	86
36.1930000000	101
36.2230000000	104
36.2530000000	113
36.2830000000	84
36.3130000000	85
36.3430000000	100
36.3730000000	86
36.4030000000	93
36.4330000000	99
36.4630000000	108
36.4930000000	114
36.5230000000	141
36.5530000000	179
36.5830000000	231
36.6130000000	294
36.6430000000	372
36.6730000000	455
36.7030000000	445
36.7330000000	390
36.7630000000	336
36.7930000000	238
36.8230000000	164
36.8530000000	164
36.8830000000	136
36.9130000000	107
36.9430000000	99
36.9730000000	121
37.0030000000	77
37.0330000000	98
37.0630000000	108
37.0930000000	103
37.1230000000	89
37.1530000000	84
37.1830000000	68
37.2130000000	88
37.2430000000	95
37.2730000000	85
37.3030000000	80
37.3330000000	77
37.3630000000	86
37.3930000000	82
37.4230000000	83
37.4530000000	73
37.4830000000	77
37.5130000000	81
37.5430000000	82
37.5730000000	94
37.6030000000	95
37.6330000000	84
37.6630000000	89
37.6930000000	78
37.7230000000	85
37.7530000000	92
37.7830000000	80
37.8130000000	85
37.8430000000	89
37.8730000000	74
37.9030000000	77
37.9330000000	89
37.9630000000	89
37.9930000000	85
38.0230000000	78
38.0530000000	72
38.0830000000	77
38.1130000000	80
38.1430000000	79
38.1730000000	100
38.2030000000	82
38.2330000000	84
38.2630000000	98
38.2930000000	100
38.3230000000	93
38.3530000000	82
38.3830000000	74
38.4130000000	100
38.4430000000	91
38.4730000000	86
38.5030000000	87
38.5330000000	81
38.5630000000	81
38.5930000000	86
38.6230000000	87
38.6530000000	91
38.6830000000	92
38.7130000000	75
38.7430000000	77
38.7730000000	78
38.8030000000	74
38.8330000000	77
38.8630000000	79
38.8930000000	79
38.9230000000	80
38.9530000000	87
38.9830000000	82
39.0130000000	79
39.0430000000	91
39.0730000000	99
39.1030000000	103
39.1330000000	83
39.1630000000	104
39.1930000000	88
39.2230000000	93
39.2530000000	96
39.2830000000	108
39.3130000000	86
39.3430000000	96
39.3730000000	92
39.4030000000	94
39.4330000000	109
39.4630000000	96
39.4930000000	101
39.5230000000	122
39.5530000000	116
39.5830000000	122
39.6130000000	171
39.6430000000	223
39.6730000000	386
39.7030000000	474
39.7330000000	730
39.7630000000	970
39.7930000000	1102
39.8230000000	1244
39.8530000000	1095
39.8830000000	916
39.9130000000	712
39.9430000000	435
39.9730000000	322
40.0030000000	214
40.0330000000	171
40.0630000000	126
40.0930000000	99
40.1230000000	87
40.1530000000	118
40.1830000000	98
40.2130000000	87
40.2430000000	81
40.2730000000	82
40.3030000000	85
40.3330000000	86
40.3630000000	107
40.3930000000	80
40.4230000000	96
40.4530000000	85
40.4830000000	90
40.5130000000	88
40.5430000000	80
40.5730000000	99
40.6030000000	81
40.6330000000	95
40.6630000000	76
40.6930000000	92
40.7230000000	74
40.7530000000	95
40.7830000000	83
40.8130000000	74
40.8430000000	88
40.8730000000	101
40.9030000000	89
40.9330000000	88
40.9630000000	107
40.9930000000	92
41.0230000000	86
41.0530000000	85
41.0830000000	86
41.1130000000	89
41.1430000000	106
41.1730000000	80
41.2030000000	82
41.2330000000	67
41.2630000000	93
41.2930000000	88
41.3230000000	94
41.3530000000	94
41.3830000000	80
41.4130000000	71
41.4430000000	80
41.4730000000	85
41.5030000000	86
41.5330000000	80
41.5630000000	77
41.5930000000	80
41.6230000000	92
41.6530000000	82
41.6830000000	80
41.7130000000	86
41.7430000000	74
41.7730000000	80
41.8030000000	86
41.8330000000	93
41.8630000000	89
41.8930000000	76
41.9230000000	76
41.9530000000	70
41.9830000000	68
42.0130000000	83
42.0430000000	87
42.0730000000	85
42.1030000000	83
42.1330000000	75
42.1630000000	72
42.1930000000	71
42.2230000000	77
42.2530000000	88
42.2830000000	78
42.3130000000	58
42.3430000000	69
42.3730000000	82
42.4030000000	73
42.4330000000	72
42.4630000000	74
42.4930000000	70
42.5230000000	82
42.5530000000	84
42.5830000000	72
42.6130000000	79
42.6430000000	88
42.6730000000	90
42.7030000000	82
42.7330000000	76
42.7630000000	78
42.7930000000	83
42.8230000000	98
42.8530000000	89
42.8830000000	82
42.9130000000	89
42.9430000000	89
42.9730000000	82
43.0030000000	99
43.0330000000	109
43.0630000000	128
43.0930000000	175
43.1230000000	218
43.1530000000	285
43.1830000000	426
43.2130000000	612
43.2430000000	911
43.2730000000	1171
43.3030000000	1310
43.3330000000	1291
43.3630000000	1166
43.3930000000	962
43.4230000000	665
43.4530000000	466
43.4830000000	342
43.5130000000	213
43.5430000000	156
43.5730000000	123
43.6030000000	99
43.6330000000	99
43.6630000000	117
43.6930000000	102
43.7230000000	110
43.7530000000	125
43.7830000000	109
43.8130000000	94
43.8430000000	111
43.8730000000	111
43.9030000000	90
43.9330000000	100
43.9630000000	91
43.9930000000	79
44.0230000000	97
44.0530000000	70
44.0830000000	64
44.1130000000	74
44.1430000000	84
44.1730000000	87
44.2030000000	97
44.2330000000	92
44.2630000000	64
44.2930000000	86
44.3230000000	84
44.3530000000	73
44.3830000000	69
44.4130000000	76
44.4430000000	82
44.4730000000	67
44.5030000000	65
44.5330000000	61
44.5630000000	82
44.5930000000	78
44.6230000000	63
44.6530000000	83
44.6830000000	82
44.7130000000	68
44.7430000000	74
44.7730000000	80
44.8030000000	76
44.8330000000	65
44.8630000000	91
44.8930000000	108
44.9230000000	121
44.9530000000	132
44.9830000000	154
45.0130000000	240
45.0430000000	349
45.0730000000	469
45.1030000000	622
45.1330000000	860
45.1630000000	939
45.1930000000	852
45.2230000000	695
45.2530000000	592
45.2830000000	424
45.3130000000	263
45.3430000000	175
45.3730000000	126
45.4030000000	118
45.4330000000	99
45.4630000000	70
45.4930000000	91
45.5230000000	85
45.5530000000	74
45.5830000000	68
45.6130000000	61
45.6430000000	61
45.6730000000	67
45.7030000000	74
45.7330000000	78
45.7630000000	76
45.7930000000	68
45.8230000000	76
45.8530000000	73
45.8830000000	66
45.9130000000	72
45.9430000000	72
45.9730000000	87
46.0030000000	105
46.0330000000	132
46.0630000000	152
46.0930000000	186
46.1230000000	188
46.1530000000	196
46.1830000000	177
46.2130000000	157
46.2430000000	138
46.2730000000	101
46.3030000000	89
46.3330000000	84
46.3630000000	73
46.3930000000	78
46.4230000000	116
46.4530000000	79
46.4830000000	109
46.5130000000	107
46.5430000000	113
46.5730000000	89
46.6030000000	96
46.6330000000	80
46.6630000000	92
46.6930000000	91
46.7230000000	77
46.7530000000	95
46.7830000000	69
46.8130000000	71
46.8430000000	71
46.8730000000	81
46.9030000000	83
46.9330000000	89
46.9630000000	103
46.9930000000	123
47.0230000000	197
47.0530000000	218
47.0830000000	261
47.1130000000	259
47.1430000000	207
47.1730000000	196
47.2030000000	150
47.2330000000	118
47.2630000000	103
47.2930000000	86
47.3230000000	61
47.3530000000	83
47.3830000000	66
47.4130000000	61
47.4430000000	73
47.4730000000	71
47.5030000000	80
47.5330000000	99
47.5630000000	85
47.5930000000	74
47.6230000000	95
47.6530000000	84
47.6830000000	76
47.7130000000	102
47.7430000000	89
47.7730000000	71
47.8030000000	62
47.8330000000	82
47.8630000000	68
47.8930000000	59
47.9230000000	60
47.9530000000	62
47.9830000000	70
48.0130000000	54
48.0430000000	70
48.0730000000	63
48.1030000000	54
48.1330000000	62
48.1630000000	47
48.1930000000	48
48.2230000000	65
48.2530000000	54
48.2830000000	55
48.3130000000	59
48.3430000000	65
48.3730000000	62
48.4030000000	63
48.4330000000	52
48.4630000000	51
48.4930000000	54
48.5230000000	59
48.5530000000	57
48.5830000000	51
48.6130000000	58
48.6430000000	55
48.6730000000	58
48.7030000000	59
48.7330000000	53
48.7630000000	65
48.7930000000	60
48.8230000000	42
48.8530000000	51
48.8830000000	64
48.9130000000	55
48.9430000000	50
48.9730000000	50
49.0030000000	48
49.0330000000	58
49.0630000000	67
49.0930000000	58
49.1230000000	52
49.1530000000	55
49.1830000000	57
49.2130000000	56
49.2430000000	58
49.2730000000	46
49.3030000000	55
49.3330000000	65
49.3630000000	67
49.3930000000	45
49.4230000000	61
49.4530000000	58
49.4830000000	57
49.5130000000	51
49.5430000000	59
49.5730000000	48
49.6030000000	52
49.6330000000	60
49.6630000000	48
49.6930000000	58
49.7230000000	54
49.7530000000	53
49.7830000000	57
49.8130000000	55
49.8430000000	62
49.8730000000	54
49.9030000000	55
49.9330000000	53
49.9630000000	52
49.9930000000	63
50.0230000000	62
50.0530000000	45
50.0830000000	47
50.1130000000	57
50.1430000000	45
50.1730000000	54
50.2030000000	47
50.2330000000	48
50.2630000000	49
50.2930000000	58
50.3230000000	59
50.3530000000	60
50.3830000000	55
50.4130000000	56
50.4430000000	63
50.4730000000	56
50.5030000000	67
50.5330000000	67
50.5630000000	89
50.5930000000	74
50.6230000000	93
50.6530000000	102
50.6830000000	98
50.7130000000	87
50.7430000000	82
50.7730000000	71
50.8030000000	71
50.8330000000	55
50.8630000000	49
50.8930000000	54
50.9230000000	62
50.9530000000	58
50.9830000000	52
51.0130000000	62
51.0430000000	52
51.0730000000	48
51.1030000000	46
51.1330000000	45
51.1630000000	57
51.1930000000	48
51.2230000000	38
51.2530000000	52
51.2830000000	61
51.3130000000	56
51.3430000000	50
51.3730000000	49
51.4030000000	46
51.4330000000	55
51.4630000000	71
51.4930000000	52
51.5230000000	45
51.5530000000	57
51.5830000000	53
51.6130000000	56
51.6430000000	59
51.6730000000	45
51.7030000000	42
51.7330000000	57
51.7630000000	54
51.7930000000	41
51.8230000000	50
51.8530000000	55
51.8830000000	57
51.9130000000	51
51.9430000000	47
51.9730000000	53
52.0030000000	50
52.0330000000	55
52.0630000000	64
52.0930000000	56
52.1230000000	58
52.1530000000	71
52.1830000000	84
52.2130000000	81
52.2430000000	103
52.2730000000	87
52.3030000000	79
52.3330000000	66
52.3630000000	67
52.3930000000	62
52.4230000000	77
52.4530000000	62
52.4830000000	49
52.5130000000	49
52.5430000000	47
52.5730000000	56
52.6030000000	48
52.6330000000	40
52.6630000000	53
52.6930000000	43
52.7230000000	48
52.7530000000	58
52.7830000000	62
52.8130000000	50
52.8430000000	60
52.8730000000	51
52.9030000000	41
52.9330000000	52
52.9630000000	49
52.9930000000	56
53.0230000000	56
53.0530000000	60
53.0830000000	55
53.1130000000	57
53.1430000000	57
53.1730000000	46
53.2030000000	47
53.2330000000	40
53.2630000000	36
53.2930000000	38
53.3230000000	65
53.3530000000	52
53.3830000000	50
53.4130000000	47
53.4430000000	55
53.4730000000	53
53.5030000000	61
53.5330000000	47
53.5630000000	42
53.5930000000	42
53.6230000000	51
53.6530000000	53
53.6830000000	54
53.7130000000	57
53.7430000000	60
53.7730000000	55
53.8030000000	60
53.8330000000	60
53.8630000000	64
53.8930000000	90
53.9230000000	94
53.9530000000	107
53.9830000000	128
54.0130000000	114
54.0430000000	122
54.0730000000	102
54.1030000000	93
54.1330000000	82
54.1630000000	82
54.1930000000	66
54.2230000000	48
54.2530000000	71
54.2830000000	47
54.3130000000	57
54.3430000000	52
54.3730000000	52
54.4030000000	60
54.4330000000	60
54.4630000000	52
54.4930000000	38
54.5230000000	42
54.5530000000	55
54.5830000000	59
54.6130000000	61
54.6430000000	42
54.6730000000	48
54.7030000000	39
54.7330000000	38
54.7630000000	41
54.7930000000	50
54.8230000000	42
54.8530000000	39
54.8830000000	52
54.9130000000	47
54.9430000000	54
54.9730000000	51
55.0030000000	61
55.0330000000	65
55.0630000000	65
55.0930000000	105
55.1230000000	99
55.1530000000	117
55.1830000000	137
55.2130000000	97
55.2430000000	96
55.2730000000	84
55.3030000000	99
55.3330000000	74
55.3630000000	71
55.3930000000	83
55.4230000000	85
55.4530000000	118
55.4830000000	115
55.5130000000	124
55.5430000000	150
55.5730000000	117
55.6030000000	113
55.6330000000	116
55.6630000000	112
55.6930000000	99
55.7230000000	72
55.7530000000	73
55.7830000000	64
55.8130000000	59
55.8430000000	55
55.8730000000	53
55.9030000000	51
55.9330000000	47
55.9630000000	43
55.9930000000	54
56.0230000000	47
56.0530000000	49
56.0830000000	38
56.1130000000	62
56.1430000000	39
56.1730000000	52
56.2030000000	52
56.2330000000	47
56.2630000000	40
56.2930000000	36
56.3230000000	49
56.3530000000	42
56.3830000000	59
56.4130000000	38
56.4430000000	50
56.4730000000	51
56.5030000000	46
56.5330000000	39
56.5630000000	48
56.5930000000	50
56.6230000000	49
56.6530000000	44
56.6830000000	48
56.7130000000	49
56.7430000000	49
56.7730000000	39
56.8030000000	45
56.8330000000	51
56.8630000000	52
56.8930000000	50
56.9230000000	43
56.9530000000	39
56.9830000000	43
57.0130000000	50
57.0430000000	51
57.0730000000	53
57.1030000000	48
57.1330000000	32
57.1630000000	44
57.1930000000	60
57.2230000000	39
57.2530000000	45
57.2830000000	60
57.3130000000	52
57.3430000000	42
57.3730000000	50
57.4030000000	49
57.4330000000	45
57.4630000000	47
57.4930000000	41
57.5230000000	44
57.5530000000	51
57.5830000000	39
57.6130000000	39
57.6430000000	38
57.6730000000	40
57.7030000000	42
57.7330000000	44
57.7630000000	44
57.7930000000	43
57.8230000000	39
57.8530000000	41
57.8830000000	51
57.9130000000	51
57.9430000000	44
57.9730000000	49
58.0030000000	48
58.0330000000	44
58.0630000000	35
58.0930000000	38
58.1230000000	36
58.1530000000	43
58.1830000000	44
58.2130000000	43
58.2430000000	40
58.2730000000	46
58.3030000000	37
58.3330000000	49
58.3630000000	56
58.3930000000	47
58.4230000000	44
58.4530000000	40
58.4830000000	47
58.5130000000	35
58.5430000000	37
58.5730000000	44
58.6030000000	35
58.6330000000	38
58.6630000000	48
58.6930000000	41
58.7230000000	41
58.7530000000	46
58.7830000000	45
58.8130000000	41
58.8430000000	46
58.8730000000	55
58.9030000000	41
58.9330000000	41
58.9630000000	48
58.9930000000	47
59.0230000000	34
59.0530000000	51
59.0830000000	46
59.1130000000	43
59.1430000000	42
59.1730000000	45
59.2030000000	36
59.2330000000	51
59.2630000000	49
59.2930000000	48
59.3230000000	38
59.3530000000	45
59.3830000000	42
59.4130000000	46
59.4430000000	37
59.4730000000	39
59.5030000000	47
59.5330000000	42
59.5630000000	41
59.5930000000	46
59.6230000000	40
59.6530000000	40
59.6830000000	51
59.7130000000	49
59.7430000000	40
59.7730000000	47
59.8030000000	58
59.8330000000	50
59.8630000000	43
59.8930000000	50
59.9230000000	49
59.9530000000	48
59.9830000000	48
60.0130000000	44
60.0430000000	45
60.0730000000	43
60.1030000000	47
60.1330000000	46
60.1630000000	53
60.1930000000	49
60.2230000000	46
60.2530000000	63
60.2830000000	71
60.3130000000	95
60.3430000000	98
60.3730000000	132
60.4030000000	130
60.4330000000	133
60.4630000000	130
60.4930000000	101
60.5230000000	93
60.5530000000	87
60.5830000000	92
60.6130000000	59
60.6430000000	62
60.6730000000	50
60.7030000000	55
60.7330000000	56
60.7630000000	45
60.7930000000	44
60.8230000000	55
60.8530000000	48
60.8830000000	29
60.9130000000	44
60.9430000000	52
60.9730000000	38
61.0030000000	55
61.0330000000	34
61.0630000000	48
61.0930000000	46
61.1230000000	50
61.1530000000	44
61.1830000000	40
61.2130000000	51
61.2430000000	50
61.2730000000	45
61.3030000000	44
61.3330000000	50
61.3630000000	51
61.3930000000	58
61.4230000000	72
61.4530000000	67
61.4830000000	77
61.5130000000	102
61.5430000000	106
61.5730000000	133
61.6030000000	121
61.6330000000	122
61.6630000000	112
61.6930000000	89
61.7230000000	80
61.7530000000	104
61.7830000000	89
61.8130000000	64
61.8430000000	60
61.8730000000	58
61.9030000000	46
61.9330000000	54
61.9630000000	45
61.9930000000	47
62.0230000000	61
62.0530000000	52
62.0830000000	37
62.1130000000	47
62.1430000000	47
62.1730000000	52
62.2030000000	45
62.2330000000	30
62.2630000000	46
62.2930000000	45
62.3230000000	37
62.3530000000	55
62.3830000000	43
62.4130000000	37
62.4430000000	35
62.4730000000	36
62.5030000000	53
62.5330000000	46
62.5630000000	50
62.5930000000	47
62.6230000000	44
62.6530000000	38
62.6830000000	41
62.7130000000	33
62.7430000000	40
62.7730000000	43
62.8030000000	39
62.8330000000	35
62.8630000000	33
62.8930000000	34
62.9230000000	47
62.9530000000	46
62.9830000000	43
63.0130000000	31
63.0430000000	45
63.0730000000	51
63.1030000000	36
63.1330000000	39
63.1630000000	58
63.1930000000	54
63.2230000000	45
63.2530000000	40
63.2830000000	45
63.3130000000	50
63.3430000000	38
63.3730000000	49
63.4030000000	67
63.4330000000	49
63.4630000000	50
63.4930000000	47
63.5230000000	50
63.5530000000	51
63.5830000000	54
63.6130000000	43
63.6430000000	53
63.6730000000	43
63.7030000000	41
63.7330000000	45
63.7630000000	36
63.7930000000	50
63.8230000000	36
63.8530000000	51
63.8830000000	41
63.9130000000	50
63.9430000000	40
63.9730000000	37
64.0030000000	39
64.0330000000	40
64.0630000000	37
64.0930000000	38
64.1230000000	36
64.1530000000	41
64.1830000000	37
64.2130000000	44
64.2430000000	41
64.2730000000	46
64.3030000000	55
64.3330000000	49
64.3630000000	48
64.3930000000	36
64.4230000000	47
64.4530000000	42
64.4830000000	40
64.5130000000	37
64.5430000000	53
64.5730000000	42
64.6030000000	36
64.6330000000	46
64.6630000000	39
64.6930000000	43
64.7230000000	51
64.7530000000	45
64.7830000000	40
64.8130000000	41
64.8430000000	46
64.8730000000	42
64.9030000000	56
64.9330000000	47
64.9630000000	39
64.9930000000	45
65.0230000000	49
65.0530000000	45
65.0830000000	32
65.1130000000	45
65.1430000000	46
65.1730000000	43
65.2030000000	30
65.2330000000	47
65.2630000000	38
65.2930000000	44
65.3230000000	43
65.3530000000	40
65.3830000000	43
65.4130000000	37
65.4430000000	46
65.4730000000	37
65.5030000000	60
65.5330000000	54
65.5630000000	39
65.5930000000	33
65.6230000000	34
65.6530000000	42
65.6830000000	48
65.7130000000	47
65.7430000000	39
65.7730000000	45
65.8030000000	42
65.8330000000	37
65.8630000000	39
65.8930000000	49
65.9230000000	46
65.9530000000	41
65.9830000000	34
66.0130000000	44
66.0430000000	50
66.0730000000	48
66.1030000000	47
66.1330000000	49
66.1630000000	34
66.1930000000	36
66.2230000000	58
66.2530000000	77
66.2830000000	83
66.3130000000	92
66.3430000000	127
66.3730000000	144
66.4030000000	180
66.4330000000	173
66.4630000000	162
66.4930000000	143
66.5230000000	128
66.5530000000	140
66.5830000000	126
66.6130000000	93
66.6430000000	95
66.6730000000	86
66.7030000000	71
66.7330000000	61
66.7630000000	50
66.7930000000	41
66.8230000000	52
66.8530000000	42
66.8830000000	44
66.9130000000	37
66.9430000000	46
66.9730000000	35
67.0030000000	54
67.0330000000	44
67.0630000000	38
67.0930000000	33
67.1230000000	35
67.1530000000	42
67.1830000000	47
67.2130000000	43
67.2430000000	37
67.2730000000	46
67.3030000000	45
67.3330000000	46
67.3630000000	46
67.3930000000	43
67.4230000000	38
67.4530000000	38
67.4830000000	44
67.5130000000	35
67.5430000000	45
67.5730000000	49
67.6030000000	43
67.6330000000	38
67.6630000000	36
67.6930000000	42
67.7230000000	31
67.7530000000	32
67.7830000000	43
67.8130000000	45
67.8430000000	40
67.8730000000	42
67.9030000000	47
67.9330000000	37
67.9630000000	50
67.9930000000	57
68.0230000000	42
68.0530000000	43
68.0830000000	39
68.1130000000	47
68.1430000000	55
68.1730000000	45
68.2030000000	37
68.2330000000	34
68.2630000000	37
68.2930000000	39
68.3230000000	34
68.3530000000	41
68.3830000000	52
68.4130000000	43
68.4430000000	44
68.4730000000	48
68.5030000000	40
68.5330000000	39
68.5630000000	41
68.5930000000	38
68.6230000000	48
68.6530000000	37
68.6830000000	31
68.7130000000	50
68.7430000000	47
68.7730000000	44
68.8030000000	39
68.8330000000	34
68.8630000000	31
68.8930000000	41
68.9230000000	34
68.9530000000	31
68.9830000000	37
69.0130000000	46
69.0430000000	37
69.0730000000	37
69.1030000000	41
69.1330000000	32
69.1630000000	38
69.1930000000	38
69.2230000000	45
69.2530000000	42
69.2830000000	43
69.3130000000	47
69.3430000000	40
69.3730000000	39
69.4030000000	33
69.4330000000	46
69.4630000000	43
69.4930000000	45
69.5230000000	50
69.5530000000	55
69.5830000000	46
69.6130000000	49
69.6430000000	48
69.6730000000	52
69.7030000000	45
69.7330000000	40
69.7630000000	35
69.7930000000	37
69.8230000000	51
69.8530000000	52
69.8830000000	44
69.9130000000	40
69.9430000000	55
69.9730000000	48
70.0030000000	35
70.0330000000	40
70.0630000000	36
70.0930000000	47
70.1230000000	47
70.1530000000	33
70.1830000000	37
70.2130000000	50
70.2430000000	42
70.2730000000	40
70.3030000000	45
70.3330000000	39
70.3630000000	59
70.3930000000	37
70.4230000000	42
70.4530000000	41
70.4830000000	36
70.5130000000	42
70.5430000000	50
70.5730000000	34
70.6030000000	55
70.6330000000	53
70.6630000000	41
70.6930000000	42
70.7230000000	51
70.7530000000	48
70.7830000000	42
70.8130000000	39
70.8430000000	36
70.8730000000	29
70.9030000000	38
70.9330000000	39
70.9630000000	44
70.9930000000	48
71.0230000000	43
71.0530000000	42
71.0830000000	35
71.1130000000	47
71.1430000000	48
71.1730000000	41
71.2030000000	42
71.2330000000	39
71.2630000000	33
71.2930000000	31
71.3230000000	29
71.3530000000	41
71.3830000000	42
71.4130000000	32
71.4430000000	40
71.4730000000	43
71.5030000000	34
71.5330000000	39
71.5630000000	37
71.5930000000	31
71.6230000000	44
71.6530000000	29
71.6830000000	33
71.7130000000	38
71.7430000000	45
71.7730000000	48
71.8030000000	42
71.8330000000	35
71.8630000000	37
71.8930000000	41
71.9230000000	41
71.9530000000	54
71.9830000000	50
72.0130000000	42
72.0430000000	42
72.0730000000	56
72.1030000000	49
72.1330000000	56
72.1630000000	53
72.1930000000	56
72.2230000000	44
72.2530000000	63
72.2830000000	41
72.3130000000	40
72.3430000000	60
72.3730000000	60
72.4030000000	54
72.4330000000	50
72.4630000000	53
72.4930000000	78
72.5230000000	87
72.5530000000	88
72.5830000000	100
72.6130000000	127
72.6430000000	90
72.6730000000	108
72.7030000000	100
72.7330000000	103
72.7630000000	84
72.7930000000	91
72.8230000000	78
72.8530000000	86
72.8830000000	91
72.9130000000	94
72.9430000000	119
72.9730000000	116
73.0030000000	116
73.0330000000	162
73.0630000000	178
73.0930000000	168
73.1230000000	117
73.1530000000	113
73.1830000000	122
73.2130000000	109
73.2430000000	115
73.2730000000	93
73.3030000000	76
73.3330000000	62
73.3630000000	55
73.3930000000	56
73.4230000000	56
73.4530000000	65
73.4830000000	42
73.5130000000	31
73.5430000000	43
73.5730000000	46
73.6030000000	41
73.6330000000	44
73.6630000000	49
73.6930000000	41
73.7230000000	37
73.7530000000	52
73.7830000000	49
73.8130000000	47
73.8430000000	30
73.8730000000	36
73.9030000000	45
73.9330000000	46
73.9630000000	35
73.9930000000	41
74.0230000000	36
74.0530000000	41
74.0830000000	41
74.1130000000	33
74.1430000000	44
74.1730000000	51
74.2030000000	38
74.2330000000	56
74.2630000000	45
74.2930000000	45
74.3230000000	43
74.3530000000	49
74.3830000000	36
74.4130000000	61
74.4430000000	46
74.4730000000	40
74.5030000000	39
74.5330000000	42
74.5630000000	51
74.5930000000	43
74.6230000000	38
74.6530000000	40
74.6830000000	32
74.7130000000	33
74.7430000000	46
74.7730000000	53
74.8030000000	56
74.8330000000	54
74.8630000000	65
74.8930000000	48
74.9230000000	40
74.9530000000	60
74.9830000000	56
75.0130000000	63
75.0430000000	59
75.0730000000	58
75.1030000000	57
75.1330000000	56
75.1630000000	47
75.1930000000	55
75.2230000000	40
75.2530000000	45
75.2830000000	46
75.3130000000	47
75.3430000000	42
75.3730000000	53
75.4030000000	58
75.4330000000	51
75.4630000000	54
75.4930000000	43
75.5230000000	51
75.5530000000	44
75.5830000000	48
75.6130000000	37
75.6430000000	56
75.6730000000	29
75.7030000000	26
75.7330000000	41
75.7630000000	40
75.7930000000	43
75.8230000000	43
75.8530000000	37
75.8830000000	33
75.9130000000	44
75.9430000000	35
75.9730000000	43
76.0030000000	35
76.0330000000	45
76.0630000000	50
76.0930000000	41
76.1230000000	43
76.1530000000	48
76.1830000000	48
76.2130000000	38
76.2430000000	39
76.2730000000	62
76.3030000000	37
76.3330000000	35
76.3630000000	33
76.3930000000	43
76.4230000000	35
76.4530000000	34
76.4830000000	40
76.5130000000	37
76.5430000000	42
76.5730000000	41
76.6030000000	41
76.6330000000	38
76.6630000000	51
76.6930000000	45
76.7230000000	34
76.7530000000	36
76.7830000000	44
76.8130000000	40
76.8430000000	36
76.8730000000	43
76.9030000000	22
76.9330000000	42
76.9630000000	33
76.9930000000	41
77.0230000000	39
77.0530000000	40
77.0830000000	40
77.1130000000	43
77.1430000000	43
77.1730000000	25
77.2030000000	41
77.2330000000	31
77.2630000000	47
77.2930000000	29
77.3230000000	38
77.3530000000	56
77.3830000000	26
77.4130000000	47
77.4430000000	33
77.4730000000	45
77.5030000000	44
77.5330000000	51
77.5630000000	59
77.5930000000	70
77.6230000000	72
77.6530000000	91
77.6830000000	91
77.7130000000	77
77.7430000000	68
77.7730000000	67
77.8030000000	65
77.8330000000	72
77.8630000000	59
77.8930000000	61
77.9230000000	62
77.9530000000	55
77.9830000000	51
78.0130000000	49
78.0430000000	43
78.0730000000	54
78.1030000000	51
78.1330000000	46
78.1630000000	41
78.1930000000	53
78.2230000000	50
78.2530000000	42
78.2830000000	45
78.3130000000	49
78.3430000000	45
78.3730000000	44
78.4030000000	52
78.4330000000	35
78.4630000000	40
78.4930000000	35
78.5230000000	45
78.5530000000	33
78.5830000000	42
78.6130000000	41
78.6430000000	55
78.6730000000	37
78.7030000000	56
78.7330000000	50
78.7630000000	57
78.7930000000	42
78.8230000000	31
78.8530000000	54
78.8830000000	52
78.9130000000	50
78.9430000000	45
78.9730000000	54
79.0030000000	50
79.0330000000	48
79.0630000000	48
79.0930000000	48
79.1230000000	38
79.1530000000	49
79.1830000000	45
79.2130000000	39
79.2430000000	35
79.2730000000	46
79.3030000000	28
79.3330000000	57
79.3630000000	38
79.3930000000	44
79.4230000000	44
79.4530000000	32
79.4830000000	39
79.5130000000	53
79.5430000000	39
79.5730000000	35
79.6030000000	35
79.6330000000	29
79.6630000000	29
79.6930000000	40
79.7230000000	39
79.7530000000	41
79.7830000000	41
79.8130000000	43
79.8430000000	38
79.8730000000	47
79.9030000000	56
79.9330000000	53
79.9630000000	39
79.9930000000	39
80.0230000000	51
80.0530000000	36
80.0830000000	28
80.1130000000	40
80.1430000000	34
80.1730000000	41
80.2030000000	43
80.2330000000	36
80.2630000000	33
80.2930000000	39
80.3230000000	36
80.3530000000	33
80.3830000000	32
80.4130000000	31
80.4430000000	33
80.4730000000	31
80.5030000000	35
80.5330000000	28
80.5630000000	34
80.5930000000	35
80.6230000000	36
80.6530000000	46
80.6830000000	40
80.7130000000	54
80.7430000000	40
80.7730000000	43
80.8030000000	64
80.8330000000	53
80.8630000000	67
80.8930000000	66
80.9230000000	66
80.9530000000	49
80.9830000000	50
81.0130000000	58
81.0430000000	39
81.0730000000	54
81.1030000000	44
81.1330000000	48
81.1630000000	55
81.1930000000	44
81.2230000000	39
81.2530000000	56
81.2830000000	40
81.3130000000	43
81.3430000000	46
81.3730000000	47
81.4030000000	43
81.4330000000	44
81.4630000000	50
81.4930000000	54
81.5230000000	50
81.5530000000	39
81.5830000000	51
81.6130000000	51
81.6430000000	39
81.6730000000	44
81.7030000000	34
81.7330000000	35
81.7630000000	42
81.7930000000	36
81.8230000000	40
81.8530000000	43
81.8830000000	39
81.9130000000	36
81.9430000000	35
81.9730000000	32
82.0030000000	46
82.0330000000	40
82.0630000000	44
82.0930000000	36
82.1230000000	31
82.1530000000	35
82.1830000000	23
82.2130000000	35
82.2430000000	41
82.2730000000	32
82.3030000000	40
82.3330000000	41
82.3630000000	36
82.3930000000	42
82.4230000000	34
82.4530000000	32
82.4830000000	41
82.5130000000	46
82.5430000000	36
82.5730000000	35
82.6030000000	41
82.6330000000	35
82.6630000000	35
82.6930000000	29
82.7230000000	27
82.7530000000	25
82.7830000000	34
82.8130000000	33
82.8430000000	34
82.8730000000	37
82.9030000000	35
82.9330000000	36
82.9630000000	41
82.9930000000	36
83.0230000000	47
83.0530000000	44
83.0830000000	37
83.1130000000	40
83.1430000000	41
83.1730000000	37
83.2030000000	45
83.2330000000	33
83.2630000000	41
83.2930000000	33
83.3230000000	47
83.3530000000	49
83.3830000000	49
83.4130000000	42
83.4430000000	47
83.4730000000	60
83.5030000000	59
83.5330000000	59
83.5630000000	48
83.5930000000	63
83.6230000000	44
83.6530000000	39
83.6830000000	51
83.7130000000	52
83.7430000000	36
83.7730000000	48
83.8030000000	28
83.8330000000	44
83.8630000000	47
83.8930000000	30
83.9230000000	36
83.9530000000	42
83.9830000000	41
84.0130000000	25
84.0430000000	36
84.0730000000	41
84.1030000000	30
84.1330000000	35
84.1630000000	36
84.1930000000	45
84.2230000000	42
84.2530000000	42
84.2830000000	37
84.3130000000	39
84.3430000000	37
84.3730000000	36
84.4030000000	36
84.4330000000	36
84.4630000000	40
84.4930000000	32
84.5230000000	35
84.5530000000	27
84.5830000000	34
84.6130000000	33
84.6430000000	35
84.6730000000	44
84.7030000000	37
84.7330000000	25
84.7630000000	30
84.7930000000	34
84.8230000000	31
84.8530000000	35
84.8830000000	50
84.9130000000	38
84.9430000000	35
84.9730000000	41
85.0030000000	39
85.0330000000	26
85.0630000000	32
85.0930000000	36
85.1230000000	32
85.1530000000	41
85.1830000000	42
85.2130000000	39
85.2430000000	31
85.2730000000	49
85.3030000000	31
85.3330000000	28
85.3630000000	41
85.3930000000	34
85.4230000000	37
85.4530000000	35
85.4830000000	29
85.5130000000	34
85.5430000000	24
85.5730000000	40
85.6030000000	38
85.6330000000	41
85.6630000000	42
85.6930000000	35
85.7230000000	48
85.7530000000	45
85.7830000000	52
85.8130000000	49
85.8430000000	42
85.8730000000	51
85.9030000000	47
85.9330000000	31
85.9630000000	40
85.9930000000	48
86.0230000000	48
86.0530000000	30
86.0830000000	45
86.1130000000	47
86.1430000000	46
86.1730000000	47
86.2030000000	34
86.2330000000	44
86.2630000000	33
86.2930000000	31
86.3230000000	46
86.3530000000	43
86.3830000000	50
86.4130000000	36
86.4430000000	33
86.4730000000	40
86.5030000000	37
86.5330000000	37
86.5630000000	36
86.5930000000	35
86.6230000000	46
86.6530000000	43
86.6830000000	49
86.7130000000	40
86.7430000000	40
86.7730000000	40
86.8030000000	41
86.8330000000	43
86.8630000000	48
86.8930000000	47
86.9230000000	41
86.9530000000	39
86.9830000000	35
87.0130000000	32
87.0430000000	39
87.0730000000	39
87.1030000000	40
87.1330000000	36
87.1630000000	41
87.1930000000	52
87.2230000000	39
87.2530000000	36
87.2830000000	43
87.3130000000	39
87.3430000000	44
87.3730000000	49
87.4030000000	50
87.4330000000	46
87.4630000000	35
87.4930000000	41
87.5230000000	34
87.5530000000	36
87.5830000000	37
87.6130000000	45
87.6430000000	41
87.6730000000	27
87.7030000000	35
87.7330000000	38
87.7630000000	42
87.7930000000	47
87.8230000000	33
87.8530000000	42
87.8830000000	44
87.9130000000	42
87.9430000000	39
87.9730000000	36
88.0030000000	35
88.0330000000	47
88.0630000000	47
88.0930000000	27
88.1230000000	39
88.1530000000	35
88.1830000000	31
88.2130000000	33
88.2430000000	53
88.2730000000	42
88.3030000000	41
88.3330000000	48
88.3630000000	43
88.3930000000	51
88.4230000000	41
88.4530000000	59
88.4830000000	52
88.5130000000	42
88.5430000000	57
88.5730000000	46
88.6030000000	42
88.6330000000	40
88.6630000000	36
88.6930000000	50
88.7230000000	50
88.7530000000	53
88.7830000000	34
88.8130000000	36
88.8430000000	43
88.8730000000	43
88.9030000000	37
88.9330000000	46
88.9630000000	37
88.9930000000	41
89.0230000000	43
89.0530000000	43
89.0830000000	37
89.1130000000	27
89.1430000000	39
89.1730000000	35
89.2030000000	44
89.2330000000	44
89.2630000000	34
89.2930000000	38
89.3230000000	42
89.3530000000	32
89.3830000000	30
89.4130000000	41
89.4430000000	42
89.4730000000	35
89.5030000000	41
89.5330000000	49
89.5630000000	66
89.5930000000	51
89.6230000000	61
89.6530000000	52
89.6830000000	47
89.7130000000	53
89.7430000000	49
89.7730000000	52
89.8030000000	56
89.8330000000	55
89.8630000000	53
89.8930000000	52
89.9230000000	42
89.9530000000	44
89.9830000000	32
90.0130000000	35
90.0430000000	41
90.0730000000	53
90.1030000000	46
90.1330000000	39
90.1630000000	38
90.1930000000	42
90.2230000000	39
90.2530000000	34
90.2830000000	43
90.3130000000	34
90.3430000000	38
90.3730000000	35
90.4030000000	44
90.4330000000	34
90.4630000000	36
90.4930000000	37
90.5230000000	36
90.5530000000	50
90.5830000000	44
90.6130000000	43
90.6430000000	35
90.6730000000	43
90.7030000000	39
90.7330000000	38
90.7630000000	36
90.7930000000	41
90.8230000000	42
90.8530000000	34
90.8830000000	37
90.9130000000	34
90.9430000000	36
90.9730000000	30
91.0030000000	40
91.0330000000	39
91.0630000000	54
91.0930000000	42
91.1230000000	31
91.1530000000	29
91.1830000000	26
91.2130000000	42
91.2430000000	28
91.2730000000	30
91.3030000000	29
91.3330000000	34
91.3630000000	25
91.3930000000	34
91.4230000000	32
91.4530000000	35
91.4830000000	41
91.5130000000	41
91.5430000000	34
91.5730000000	32
91.6030000000	39
91.6330000000	42
91.6630000000	43
91.6930000000	41
91.7230000000	35
91.7530000000	43
91.7830000000	40
91.8130000000	41
91.8430000000	44
91.8730000000	41
91.9030000000	28
91.9330000000	34
91.9630000000	34
91.9930000000	54
92.0230000000	47
92.0530000000	35
92.0830000000	32
92.1130000000	33
92.1430000000	34
92.1730000000	34
92.2030000000	45
92.2330000000	35
92.2630000000	40
92.2930000000	37
92.3230000000	47
92.3530000000	36
92.3830000000	38
92.4130000000	30
92.4430000000	37
92.4730000000	42
92.5030000000	36
92.5330000000	31
92.5630000000	38
92.5930000000	39
92.6230000000	34
92.6530000000	43
92.6830000000	39
92.7130000000	32
92.7430000000	40
92.7730000000	37
92.8030000000	35
92.8330000000	40
92.8630000000	41
92.8930000000	44
92.9230000000	42
92.9530000000	34
92.9830000000	36
93.0130000000	39
93.0430000000	34
93.0730000000	33
93.1030000000	39
93.1330000000	38
93.1630000000	40
93.1930000000	45
93.2230000000	42
93.2530000000	39
93.2830000000	42
93.3130000000	45
93.3430000000	43
93.3730000000	32
93.4030000000	42
93.4330000000	40
93.4630000000	31
93.4930000000	37
93.5230000000	34
93.5530000000	26
93.5830000000	30
93.6130000000	39
93.6430000000	40
93.6730000000	42
93.7030000000	43
93.7330000000	49
93.7630000000	35
93.7930000000	46
93.8230000000	49
93.8530000000	38
93.8830000000	36
93.9130000000	33
93.9430000000	39
93.9730000000	35
94.0030000000	34
94.0330000000	38
94.0630000000	41
94.0930000000	29
94.1230000000	35
94.1530000000	37
94.1830000000	47
94.2130000000	43
94.2430000000	49
94.2730000000	51
94.3030000000	41
94.3330000000	42
94.3630000000	26
94.3930000000	41
94.4230000000	46
94.4530000000	37
94.4830000000	41
94.5130000000	37
94.5430000000	33
94.5730000000	36
94.6030000000	42
94.6330000000	38
94.6630000000	33
94.6930000000	36
94.7230000000	37
94.7530000000	36
94.7830000000	40
94.8130000000	32
94.8430000000	40
94.8730000000	30
94.9030000000	29
94.9330000000	31
94.9630000000	40
94.9930000000	37
95.0230000000	37
95.0530000000	42
95.0830000000	31
95.1130000000	30
95.1430000000	41
95.1730000000	49
95.2030000000	37
95.2330000000	24
95.2630000000	44
95.2930000000	33
95.3230000000	44
95.3530000000	44
95.3830000000	35
95.4130000000	41
95.4430000000	29
95.4730000000	33
95.5030000000	29
95.5330000000	38
95.5630000000	49
95.5930000000	38
95.6230000000	35
95.6530000000	34
95.6830000000	47
95.7130000000	36
95.7430000000	30
95.7730000000	34
95.8030000000	37
95.8330000000	34
95.8630000000	37
95.8930000000	38
95.9230000000	34
95.9530000000	41
95.9830000000	41
96.0130000000	43
96.0430000000	44
96.0730000000	36
96.1030000000	34
96.1330000000	32
96.1630000000	27
96.1930000000	39
96.2230000000	27
96.2530000000	40
96.2830000000	30
96.3130000000	32
96.3430000000	38
96.3730000000	37
96.4030000000	36
96.4330000000	45
96.4630000000	52
96.4930000000	33
96.5230000000	53
96.5530000000	41
96.5830000000	33
96.6130000000	51
96.6430000000	36
96.6730000000	40
96.7030000000	31
96.7330000000	39
96.7630000000	30
96.7930000000	23
96.8230000000	36
96.8530000000	45
96.8830000000	27
96.9130000000	34
96.9430000000	43
96.9730000000	37
97.0030000000	47
97.0330000000	42
97.0630000000	47
97.0930000000	41
97.1230000000	47
97.1530000000	38
97.1830000000	38
97.2130000000	39
97.2430000000	32
97.2730000000	40
97.3030000000	39
97.3330000000	34
97.3630000000	38
97.3930000000	35
97.4230000000	31
97.4530000000	35
97.4830000000	36
97.5130000000	37
97.5430000000	39
97.5730000000	40
97.6030000000	44
97.6330000000	44
97.6630000000	43
97.6930000000	28
97.7230000000	43
97.7530000000	53
97.7830000000	39
97.8130000000	39
97.8430000000	33
97.8730000000	36
97.9030000000	33
97.9330000000	39
97.9630000000	39
97.9930000000	34
98.0230000000	25
98.0530000000	34
98.0830000000	50
98.1130000000	43
98.1430000000	45
98.1730000000	40
98.2030000000	40
98.2330000000	46
98.2630000000	46
98.2930000000	49
98.3230000000	33
98.3530000000	38
98.3830000000	39
98.4130000000	36
98.4430000000	23
98.4730000000	42
98.5030000000	42
98.5330000000	40
98.5630000000	39
98.5930000000	37
98.6230000000	34
98.6530000000	33
98.6830000000	42
98.7130000000	38
98.7430000000	35
98.7730000000	32
98.8030000000	32
98.8330000000	40
98.8630000000	45
98.8930000000	50
98.9230000000	35
98.9530000000	37
98.9830000000	26
99.0130000000	46
99.0430000000	34
99.0730000000	47
99.1030000000	38
99.1330000000	39
99.1630000000	43
99.1930000000	38
99.2230000000	32
99.2530000000	37
99.2830000000	29
99.3130000000	32
99.3430000000	35
99.3730000000	38
99.4030000000	42
99.4330000000	32
99.4630000000	29
99.4930000000	34
99.5230000000	42
99.5530000000	35
99.5830000000	38
99.6130000000	25
99.6430000000	34
99.6730000000	35
99.7030000000	39
99.7330000000	33
99.7630000000	38
99.7930000000	40
99.8230000000	34
99.8530000000	28
99.8830000000	31
99.9130000000	31
99.9430000000	29
99.9730000000	36
100.0030000000	37
100.0330000000	29
100.0630000000	30
100.0930000000	38
100.1230000000	40
100.1530000000	38
100.1830000000	34
100.2130000000	31
100.2430000000	32
100.2730000000	35
100.3030000000	45
100.3330000000	39
100.3630000000	45
100.3930000000	39
100.4230000000	36
100.4530000000	42
100.4830000000	31
100.5130000000	29
100.5430000000	35
100.5730000000	41
100.6030000000	48
100.6330000000	41
100.6630000000	37
100.6930000000	32
100.7230000000	41
100.7530000000	42
100.7830000000	30
100.8130000000	47
100.8430000000	28
100.8730000000	30
100.9030000000	46
100.9330000000	47
100.9630000000	40
100.9930000000	41
101.0230000000	52
101.0530000000	45
101.0830000000	40
101.1130000000	33
101.1430000000	35
101.1730000000	38
101.2030000000	33
101.2330000000	40
101.2630000000	42
101.2930000000	37
101.3230000000	35
101.3530000000	34
101.3830000000	35
101.4130000000	37
101.4430000000	32
101.4730000000	36
101.5030000000	42
101.5330000000	41
101.5630000000	38
101.5930000000	43
101.6230000000	45
101.6530000000	41
101.6830000000	38
101.7130000000	33
101.7430000000	37
101.7730000000	39
101.8030000000	28
101.8330000000	27
101.8630000000	37
101.8930000000	43
101.9230000000	33
101.9530000000	29
101.9830000000	36
102.0130000000	29
102.0430000000	47
102.0730000000	34
102.1030000000	27
102.1330000000	32
102.1630000000	40
102.1930000000	37
102.2230000000	29
102.2530000000	25
102.2830000000	37
102.3130000000	30
102.3430000000	40
102.3730000000	44
102.4030000000	47
102.4330000000	34
102.4630000000	34
102.4930000000	41
102.5230000000	33
102.5530000000	43
102.5830000000	33
102.6130000000	42
102.6430000000	33
102.6730000000	43
102.7030000000	33
102.7330000000	40
102.7630000000	37
102.7930000000	38
102.8230000000	33
102.8530000000	39
102.8830000000	31
102.9130000000	41
102.9430000000	37
102.9730000000	27
103.0030000000	37
103.0330000000	33
103.0630000000	24
103.0930000000	35
103.1230000000	36
103.1530000000	36
103.1830000000	40
103.2130000000	31
103.2430000000	28
103.2730000000	34
103.3030000000	36
103.3330000000	38
103.3630000000	35
103.3930000000	32
103.4230000000	51
103.4530000000	40
103.4830000000	31
103.5130000000	29
103.5430000000	25
103.5730000000	40
103.6030000000	31
103.6330000000	33
103.6630000000	40
103.6930000000	36
103.7230000000	46
103.7530000000	32
103.7830000000	36
103.8130000000	36
103.8430000000	42
103.8730000000	27
103.9030000000	41
103.9330000000	40
103.9630000000	41
103.9930000000	32
104.0230000000	29
104.0530000000	37
104.0830000000	30
104.1130000000	46
104.1430000000	53
104.1730000000	26
104.2030000000	39
104.2330000000	23
104.2630000000	40
104.2930000000	48
104.3230000000	34
104.3530000000	35
104.3830000000	36
104.4130000000	39
104.4430000000	35
104.4730000000	40
104.5030000000	36
104.5330000000	39
104.5630000000	43
104.5930000000	35
104.6230000000	37
104.6530000000	43
104.6830000000	40
104.7130000000	42
104.7430000000	55
104.7730000000	53
104.8030000000	54
104.8330000000	43
104.8630000000	44
104.8930000000	36
104.9230000000	42
104.9530000000	37
104.9830000000	43
105.0130000000	48
105.0430000000	46
105.0730000000	45
105.1030000000	37
105.1330000000	36
105.1630000000	34
105.1930000000	30
105.2230000000	37
105.2530000000	33
105.2830000000	36
105.3130000000	40
105.3430000000	26
105.3730000000	35
105.4030000000	36
105.4330000000	44
105.4630000000	37
105.4930000000	44
105.5230000000	45
105.5530000000	34
105.5830000000	39
105.6130000000	31
105.6430000000	32
105.6730000000	28
105.7030000000	36
105.7330000000	42
105.7630000000	37
105.7930000000	26
105.8230000000	33
105.8530000000	35
105.8830000000	34
105.9130000000	37
105.9430000000	50
105.9730000000	41
106.0030000000	40
106.0330000000	34
106.0630000000	34
106.0930000000	43
106.1230000000	31
106.1530000000	31
106.1830000000	43
106.2130000000	42
106.2430000000	35
106.2730000000	38
106.3030000000	38
106.3330000000	41
106.3630000000	41
106.3930000000	34
106.4230000000	43
106.4530000000	33
106.4830000000	41
106.5130000000	36
106.5430000000	43
106.5730000000	45
106.6030000000	44
106.6330000000	30
106.6630000000	29
106.6930000000	31
106.7230000000	34
106.7530000000	35
106.7830000000	33
106.8130000000	34
106.8430000000	36
106.8730000000	33
106.9030000000	42
106.9330000000	35
106.9630000000	41
106.9930000000	42
107.0230000000	62
107.0530000000	47
107.0830000000	53
107.1130000000	49
107.1430000000	32
107.1730000000	47
107.2030000000	47
107.2330000000	49
107.2630000000	46
107.2930000000	44
107.3230000000	34
107.3530000000	36
107.3830000000	44
107.4130000000	46
107.4430000000	36
107.4730000000	36
107.5030000000	39
107.5330000000	45
107.5630000000	39
107.5930000000	27
107.6230000000	42
107.6530000000	52
107.6830000000	43
107.7130000000	40
107.7430000000	42
107.7730000000	40
107.8030000000	44
107.8330000000	45
107.8630000000	38
107.8930000000	38
107.9230000000	46
107.9530000000	47
107.9830000000	45
108.0130000000	44
108.0430000000	44
108.0730000000	33
108.1030000000	42
108.1330000000	43
108.1630000000	52
108.1930000000	43
108.2230000000	35
108.2530000000	33
108.2830000000	39
108.3130000000	24
108.3430000000	41
108.3730000000	45
108.4030000000	33
108.4330000000	35
108.4630000000	22
108.4930000000	31
108.5230000000	33
108.5530000000	29
108.5830000000	28
108.6130000000	28
108.6430000000	27
108.6730000000	41
108.7030000000	33
108.7330000000	32
108.7630000000	31
108.7930000000	30
108.8230000000	32
108.8530000000	33
108.8830000000	41
108.9130000000	37
108.9430000000	32
108.9730000000	33
109.0030000000	40
109.0330000000	35
109.0630000000	37
109.0930000000	50
109.1230000000	40
109.1530000000	40
109.1830000000	46
109.2130000000	32
109.2430000000	38
109.2730000000	30
109.3030000000	41
109.3330000000	50
109.3630000000	40
109.3930000000	36
109.4230000000	46
109.4530000000	31
109.4830000000	34
109.5130000000	45
109.5430000000	31
109.5730000000	39
109.6030000000	31
109.6330000000	47
109.6630000000	38
109.6930000000	44
109.7230000000	54
109.7530000000	40
109.7830000000	47
109.8130000000	31
109.8430000000	28
109.8730000000	37
109.9030000000	45
109.9330000000	38
109.9630000000	37
109.9930000000	41
110.0230000000	38
110.0530000000	43
110.0830000000	37
110.1130000000	42
110.1430000000	45
110.1730000000	41
110.2030000000	41
110.2330000000	53
110.2630000000	34
110.2930000000	39
110.3230000000	46
110.3530000000	44
110.3830000000	38
110.4130000000	34
110.4430000000	38
110.4730000000	44
110.5030000000	50
110.5330000000	31
110.5630000000	36
110.5930000000	40
110.6230000000	29
110.6530000000	40
110.6830000000	37
110.7130000000	43
110.7430000000	47
110.7730000000	51
110.8030000000	37
110.8330000000	26
110.8630000000	33
110.8930000000	43
110.9230000000	50
110.9530000000	47
110.9830000000	39
111.0130000000	39
111.0430000000	40
111.0730000000	41
111.1030000000	43
111.1330000000	41
111.1630000000	35
111.1930000000	42
111.2230000000	47
111.2530000000	35
111.2830000000	41
111.3130000000	43
111.3430000000	46
111.3730000000	39
111.4030000000	41
111.4330000000	58
111.4630000000	35
111.4930000000	39
111.5230000000	32
111.5530000000	41
111.5830000000	46
111.6130000000	43
111.6430000000	37
111.6730000000	37
111.7030000000	34
111.7330000000	49
111.7630000000	46
111.7930000000	33
111.8230000000	44
111.8530000000	41
111.8830000000	50
111.9130000000	46
111.9430000000	34
111.9730000000	34
112.0030000000	46
112.0330000000	33
112.0630000000	42
112.0930000000	53
112.1230000000	40
112.1530000000	48
112.1830000000	41
112.2130000000	47
112.2430000000	37
112.2730000000	34
112.3030000000	38
112.3330000000	38
112.3630000000	39
112.3930000000	35
112.4230000000	38
112.4530000000	32
112.4830000000	36
112.5130000000	48
112.5430000000	46
112.5730000000	35
112.6030000000	38
112.6330000000	42
112.6630000000	38
112.6930000000	33
112.7230000000	34
112.7530000000	33
112.7830000000	41
112.8130000000	50
112.8430000000	23
112.8730000000	38
112.9030000000	32
112.9330000000	41
112.9630000000	53
112.9930000000	48
113.0230000000	43
113.0530000000	46
113.0830000000	40
113.1130000000	49
113.1430000000	56
113.1730000000	60
113.2030000000	59
113.2330000000	72
113.2630000000	69
113.2930000000	80
113.3230000000	81
113.3530000000	79
113.3830000000	68
113.4130000000	55
113.4430000000	57
113.4730000000	64
113.5030000000	53
113.5330000000	57
113.5630000000	48
113.5930000000	44
113.6230000000	51
113.6530000000	58
113.6830000000	57
113.7130000000	59
113.7430000000	57
113.7730000000	51
113.8030000000	48
113.8330000000	31
113.8630000000	24
113.8930000000	37
113.9230000000	51
113.9530000000	48
113.9830000000	35
114.0130000000	33
114.0430000000	36
114.0730000000	52
114.1030000000	38
114.1330000000	42
114.1630000000	47
114.1930000000	44
114.2230000000	48
114.2530000000	41
114.2830000000	38
114.3130000000	47
114.3430000000	33
114.3730000000	39
114.4030000000	44
114.4330000000	50
114.4630000000	1
114.4930000000	1
114.5230000000	1
114.5530000000	1
114.5830000000	1
