0.3130000000	1
0.3430000000	2
0.3730000000	1
0.4030000000	1
0.4330000000	1
0.4630000000	1
0.4930000000	1
0.5230000000	2
0.5530000000	1
0.5830000000	1
0.6130000000	1
0.6430000000	1
0.6730000000	1
0.7030000000	1
0.7330000000	1
0.7630000000	1
0.7930000000	1
0.8230000000	1
0.8530000000	1
0.8830000000	1
0.9130000000	1
0.9430000000	1
0.9730000000	1
1.0030000000	1
1.0330000000	1
1.0630000000	1
1.0930000000	2
1.1230000000	1
1.1530000000	1
1.1830000000	1
1.2130000000	1
1.2430000000	1
1.2730000000	1
1.3030000000	1
1.3330000000	1
1.3630000000	1
1.3930000000	1
1.4230000000	2
1.4530000000	1
1.4830000000	1
1.5130000000	2
1.5430000000	1
1.5730000000	1
1.6030000000	1
1.6330000000	1
1.6630000000	2
1.6930000000	2
1.7230000000	1
1.7530000000	1
1.7830000000	1
1.8130000000	1
1.8430000000	2
1.8730000000	1
1.9030000000	1
1.9330000000	1
1.9630000000	1
1.9930000000	1
2.0230000000	2
2.0530000000	1
2.0830000000	1
2.1130000000	1
2.1430000000	1
2.1730000000	1
2.2030000000	2
2.2330000000	2
2.2630000000	1
2.2930000000	1
2.3230000000	1
2.3530000000	3
2.3830000000	2
2.4130000000	1
2.4430000000	2
2.4730000000	1
2.5030000000	1
2.5330000000	1
2.5630000000	1
2.5930000000	1
2.6230000000	1
2.6530000000	1
2.6830000000	2
2.7130000000	2
2.7430000000	1
2.7730000000	1
2.8030000000	1
2.8330000000	2
2.8630000000	2
2.8930000000	1
2.9230000000	2
2.9530000000	2
2.9830000000	1
3.0130000000	1
3.0430000000	1
3.0730000000	1
3.1030000000	2
3.1330000000	1
3.1630000000	1
3.1930000000	1
3.2230000000	1
3.2530000000	2
3.2830000000	1
3.3130000000	2
3.3430000000	3
3.3730000000	2
3.4030000000	2
3.4330000000	1
3.4630000000	1
3.4930000000	1
3.5230000000	1
3.5530000000	3
3.5830000000	2
3.6130000000	2
3.6430000000	2
3.6730000000	1
3.7030000000	1
3.7330000000	2
3.7630000000	1
3.7930000000	1
3.8230000000	1
3.8530000000	2
3.8830000000	2
3.9130000000	1
3.9430000000	2
3.9730000000	1
4.0030000000	2
4.0330000000	5
4.0630000000	3
4.0930000000	4
4.1230000000	3
4.1530000000	2
4.1830000000	4
4.2130000000	6
4.2430000000	3
4.2730000000	5
4.3030000000	5
4.3330000000	3
4.3630000000	4
4.3930000000	3
4.4230000000	4
4.4530000000	6
4.4830000000	11
4.5130000000	24
4.5430000000	27
4.5730000000	52
4.6030000000	73
4.6330000000	94
4.6630000000	126
4.6930000000	133
4.7230000000	103
4.7530000000	121
4.7830000000	127
4.8130000000	140
4.8430000000	126
4.8730000000	139
4.9030000000	126
4.9330000000	131
4.9630000000	142
4.9930000000	150
5.0230000000	150
5.0530000000	139
5.0830000000	143
5.1130000000	138
5.1430000000	147
5.1730000000	127
5.2030000000	153
5.2330000000	134
5.2630000000	150
5.2930000000	146
5.3230000000	137
5.3530000000	118
5.3830000000	129
5.4130000000	143
5.4430000000	146
5.4730000000	170
5.5030000000	146
5.5330000000	157
5.5630000000	117
5.5930000000	137
5.6230000000	142
5.6530000000	157
5.6830000000	148
5.7130000000	153
5.7430000000	143
5.7730000000	123
5.8030000000	150
5.8330000000	147
5.8630000000	158
5.8930000000	154
5.9230000000	149
5.9530000000	157
5.9830000000	136
6.0130000000	152
6.0430000000	149
6.0730000000	145
6.1030000000	160
6.1330000000	148
6.1630000000	154
6.1930000000	154
6.2230000000	162
6.2530000000	142
6.2830000000	135
6.3130000000	150
6.3430000000	140
6.3730000000	122
6.4030000000	156
6.4330000000	164
6.4630000000	146
6.4930000000	142
6.5230000000	171
6.5530000000	153
6.5830000000	145
6.6130000000	139
6.6430000000	130
6.6730000000	135
6.7030000000	135
6.7330000000	152
6.7630000000	149
6.7930000000	151
6.8230000000	145
6.8530000000	164
6.8830000000	140
6.9130000000	134
6.9430000000	120
6.9730000000	135
7.0030000000	149
7.0330000000	149
7.0630000000	148
7.0930000000	137
7.1230000000	138
7.1530000000	146
7.1830000000	129
7.2130000000	162
7.2430000000	157
7.2730000000	140
7.3030000000	140
7.3330000000	161
7.3630000000	152
7.3930000000	156
7.4230000000	145
7.4530000000	140
7.4830000000	145
7.5130000000	141
7.5430000000	128
7.5730000000	155
7.6030000000	144
7.6330000000	127
7.6630000000	138
7.6930000000	147
7.7230000000	150
7.7530000000	140
7.7830000000	143
7.8130000000	135
7.8430000000	150
7.8730000000	151
7.9030000000	143
7.9330000000	152
7.9630000000	134
7.9930000000	132
8.0230000000	128
8.0530000000	132
8.0830000000	140
8.1130000000	137
8.1430000000	158
8.1730000000	147
8.2030000000	144
8.2330000000	154
8.2630000000	143
8.2930000000	150
8.3230000000	144
8.3530000000	141
8.3830000000	155
8.4130000000	142
8.4430000000	145
8.4730000000	132
8.5030000000	115
8.5330000000	144
8.5630000000	144
8.5930000000	138
8.6230000000	139
8.6530000000	148
8.6830000000	127
8.7130000000	130
8.7430000000	161
8.7730000000	148
8.8030000000	145
8.8330000000	142
8.8630000000	158
8.8930000000	159
8.9230000000	146
8.9530000000	139
8.9830000000	158
9.0130000000	129
9.0430000000	139
9.0730000000	154
9.1030000000	153
9.1330000000	150
9.1630000000	135
9.1930000000	161
9.2230000000	121
9.2530000000	151
9.2830000000	137
9.3130000000	155
9.3430000000	155
9.3730000000	125
9.4030000000	130
9.4330000000	148
9.4630000000	145
9.4930000000	132
9.5230000000	158
9.5530000000	152
9.5830000000	138
9.6130000000	155
9.6430000000	144
9.6730000000	148
9.7030000000	162
9.7330000000	135
9.7630000000	154
9.7930000000	132
9.8230000000	151
9.8530000000	144
9.8830000000	157
9.9130000000	125
9.9430000000	147
9.9730000000	144
10.0030000000	143
10.0330000000	136
10.0630000000	143
10.0930000000	149
10.1230000000	159
10.1530000000	147
10.1830000000	158
10.2130000000	165
10.2430000000	157
10.2730000000	141
10.3030000000	123
10.3330000000	145
10.3630000000	147
10.3930000000	142
10.4230000000	167
10.4530000000	133
10.4830000000	155
10.5130000000	153
10.5430000000	146
10.5730000000	159
10.6030000000	141
10.6330000000	136
10.6630000000	150
10.6930000000	151
10.7230000000	134
10.7530000000	144
10.7830000000	158
10.8130000000	135
10.8430000000	151
10.8730000000	116
10.9030000000	137
10.9330000000	139
10.9630000000	167
10.9930000000	144
11.0230000000	133
11.0530000000	154
11.0830000000	144
11.1130000000	149
11.1430000000	122
11.1730000000	121
11.2030000000	140
11.2330000000	146
11.2630000000	140
11.2930000000	158
11.3230000000	156
11.3530000000	148
11.3830000000	148
11.4130000000	139
11.4430000000	133
11.4730000000	137
11.5030000000	163
11.5330000000	142
11.5630000000	140
11.5930000000	135
11.6230000000	169
11.6530000000	137
11.6830000000	158
11.7130000000	158
11.7430000000	154
11.7730000000	152
11.8030000000	147
11.8330000000	168
11.8630000000	142
11.8930000000	138
11.9230000000	158
11.9530000000	162
11.9830000000	157
12.0130000000	153
12.0430000000	135
12.0730000000	142
12.1030000000	155
12.1330000000	173
12.1630000000	145
12.1930000000	141
12.2230000000	161
12.2530000000	161
12.2830000000	145
12.3130000000	138
12.3430000000	155
12.3730000000	139
12.4030000000	148
12.4330000000	166
12.4630000000	146
12.4930000000	147
12.5230000000	146
12.5530000000	156
12.5830000000	150
12.6130000000	154
12.6430000000	164
12.6730000000	159
12.7030000000	148
12.7330000000	158
12.7630000000	144
12.7930000000	150
12.8230000000	153
12.8530000000	148
12.8830000000	141
12.9130000000	140
12.9430000000	164
12.9730000000	153
13.0030000000	132
13.0330000000	134
13.0630000000	153
13.0930000000	159
13.1230000000	152
13.1530000000	163
13.1830000000	133
13.2130000000	140
13.2430000000	136
13.2730000000	145
13.3030000000	147
13.3330000000	144
13.3630000000	135
13.3930000000	162
13.4230000000	130
13.4530000000	152
13.4830000000	147
13.5130000000	156
13.5430000000	138
13.5730000000	157
13.6030000000	117
13.6330000000	127
13.6630000000	147
13.6930000000	139
13.7230000000	145
13.7530000000	164
13.7830000000	148
13.8130000000	151
13.8430000000	150
13.8730000000	143
13.9030000000	146
13.9330000000	147
13.9630000000	162
13.9930000000	136
14.0230000000	128
14.0530000000	134
14.0830000000	151
14.1130000000	150
14.1430000000	153
14.1730000000	158
14.2030000000	158
14.2330000000	132
14.2630000000	154
14.2930000000	139
14.3230000000	143
14.3530000000	145
14.3830000000	141
14.4130000000	142
14.4430000000	172
14.4730000000	147
14.5030000000	123
14.5330000000	147
14.5630000000	120
14.5930000000	156
14.6230000000	149
14.6530000000	140
14.6830000000	167
14.7130000000	139
14.7430000000	142
14.7730000000	153
14.8030000000	148
14.8330000000	142
14.8630000000	157
14.8930000000	135
14.9230000000	145
14.9530000000	148
14.9830000000	146
15.0130000000	166
15.0430000000	167
15.0730000000	154
15.1030000000	163
15.1330000000	143
15.1630000000	168
15.1930000000	145
15.2230000000	153
15.2530000000	148
15.2830000000	161
15.3130000000	144
15.3430000000	144
15.3730000000	129
15.4030000000	147
15.4330000000	154
15.4630000000	139
15.4930000000	153
15.5230000000	144
15.5530000000	153
15.5830000000	147
15.6130000000	157
15.6430000000	151
15.6730000000	152
15.7030000000	153
15.7330000000	136
15.7630000000	157
15.7930000000	161
15.8230000000	164
15.8530000000	148
15.8830000000	156
15.9130000000	132
15.9430000000	145
15.9730000000	135
16.0030000000	143
16.0330000000	143
16.0630000000	145
16.0930000000	145
16.1230000000	124
16.1530000000	136
16.1830000000	132
16.2130000000	148
16.2430000000	144
16.2730000000	156
16.3030000000	142
16.3330000000	141
16.3630000000	143
16.3930000000	141
16.4230000000	151
16.4530000000	120
16.4830000000	154
16.5130000000	128
16.5430000000	145
16.5730000000	167
16.6030000000	166
16.6330000000	154
16.6630000000	132
16.6930000000	143
16.7230000000	152
16.7530000000	124
16.7830000000	141
16.8130000000	149
16.8430000000	152
16.8730000000	152
16.9030000000	155
16.9330000000	144
16.9630000000	145
16.9930000000	163
17.0230000000	147
17.0530000000	150
17.0830000000	150
17.1130000000	149
17.1430000000	157
17.1730000000	152
17.2030000000	141
17.2330000000	132
17.2630000000	146
17.2930000000	143
17.3230000000	147
17.3530000000	156
17.3830000000	167
17.4130000000	147
17.4430000000	150
17.4730000000	171
17.5030000000	166
17.5330000000	135
17.5630000000	154
17.5930000000	162
17.6230000000	123
17.6530000000	144
17.6830000000	153
17.7130000000	143
17.7430000000	138
17.7730000000	132
17.8030000000	139
17.8330000000	147
17.8630000000	146
17.8930000000	131
17.9230000000	121
17.9530000000	127
17.9830000000	139
18.0130000000	148
18.0430000000	147
18.0730000000	148
18.1030000000	164
18.1330000000	136
18.1630000000	138
18.1930000000	142
18.2230000000	147
18.2530000000	142
18.2830000000	115
18.3130000000	144
18.3430000000	142
18.3730000000	122
18.4030000000	155
18.4330000000	135
18.4630000000	137
18.4930000000	133
18.5230000000	137
18.5530000000	136
18.5830000000	132
18.6130000000	160
18.6430000000	153
18.6730000000	142
18.7030000000	134
18.7330000000	175
18.7630000000	141
18.7930000000	123
18.8230000000	134
18.8530000000	143
18.8830000000	143
18.9130000000	160
18.9430000000	134
18.9730000000	128
19.0030000000	127
19.0330000000	157
19.0630000000	147
19.0930000000	138
19.1230000000	148
19.1530000000	161
19.1830000000	166
19.2130000000	146
19.2430000000	143
19.2730000000	159
19.3030000000	170
19.3330000000	169
19.3630000000	157
19.3930000000	170
19.4230000000	193
19.4530000000	214
19.4830000000	247
19.5130000000	299
19.5430000000	330
19.5730000000	367
19.6030000000	336
19.6330000000	306
19.6630000000	229
19.6930000000	207
19.7230000000	200
19.7530000000	190
19.7830000000	145
19.8130000000	161
19.8430000000	153
19.8730000000	149
19.9030000000	159
19.9330000000	150
19.9630000000	144
19.9930000000	147
20.0230000000	145
20.0530000000	143
20.0830000000	160
20.1130000000	150
20.1430000000	153
20.1730000000	149
20.2030000000	138
20.2330000000	151
20.2630000000	144
20.2930000000	166
20.3230000000	146
20.3530000000	160
20.3830000000	161
20.4130000000	156
20.4430000000	147
20.4730000000	139
20.5030000000	137
20.5330000000	149
20.5630000000	122
20.5930000000	151
20.6230000000	143
20.6530000000	179
20.6830000000	134
20.7130000000	141
20.7430000000	150
20.7730000000	131
20.8030000000	150
20.8330000000	157
20.8630000000	151
20.8930000000	133
20.9230000000	146
20.9530000000	178
20.9830000000	168
21.0130000000	152
21.0430000000	145
21.0730000000	133
21.1030000000	152
21.1330000000	168
21.1630000000	149
21.1930000000	172
21.2230000000	134
21.2530000000	168
21.2830000000	158
21.3130000000	142
21.3430000000	139
21.3730000000	152
21.4030000000	170
21.4330000000	160
21.4630000000	137
21.4930000000	164
21.5230000000	175
21.5530000000	151
21.5830000000	149
21.6130000000	174
21.6430000000	152
21.6730000000	160
21.7030000000	179
21.7330000000	143
21.7630000000	176
21.7930000000	172
21.8230000000	152
21.8530000000	157
21.8830000000	160
21.9130000000	153
21.9430000000	162
21.9730000000	170
22.0030000000	145
22.0330000000	164
22.0630000000	168
22.0930000000	153
22.1230000000	166
22.1530000000	161
22.1830000000	166
22.2130000000	164
22.2430000000	164
22.2730000000	172
22.3030000000	174
22.3330000000	180
22.3630000000	171
22.3930000000	167
22.4230000000	150
22.4530000000	178
22.4830000000	178
22.5130000000	155
22.5430000000	165
22.5730000000	160
22.6030000000	181
22.6330000000	210
22.6630000000	217
22.6930000000	221
22.7230000000	226
22.7530000000	237
22.7830000000	212
22.8130000000	214
22.8430000000	202
22.8730000000	193
22.9030000000	176
22.9330000000	175
22.9630000000	166
22.9930000000	190
23.0230000000	176
23.0530000000	169
23.0830000000	189
23.1130000000	155
23.1430000000	180
23.1730000000	193
23.2030000000	162
23.2330000000	172
23.2630000000	169
23.2930000000	164
23.3230000000	165
23.3530000000	175
23.3830000000	176
23.4130000000	169
23.4430000000	155
23.4730000000	185
23.5030000000	147
23.5330000000	151
23.5630000000	163
23.5930000000	171
23.6230000000	201
23.6530000000	178
23.6830000000	170
23.7130000000	162
23.7430000000	183
23.7730000000	164
23.8030000000	159
23.8330000000	165
23.8630000000	177
23.8930000000	171
23.9230000000	180
23.9530000000	162
23.9830000000	166
24.0130000000	186
24.0430000000	160
24.0730000000	166
24.1030000000	182
24.1330000000	130
24.1630000000	176
24.1930000000	163
24.2230000000	164
24.2530000000	150
24.2830000000	157
24.3130000000	146
24.3430000000	171
24.3730000000	164
24.4030000000	168
24.4330000000	174
24.4630000000	179
24.4930000000	184
24.5230000000	184
24.5530000000	162
24.5830000000	184
24.6130000000	183
24.6430000000	172
24.6730000000	165
24.7030000000	169
24.7330000000	181
24.7630000000	166
24.7930000000	156
24.8230000000	169
24.8530000000	166
24.8830000000	143
24.9130000000	152
24.9430000000	172
24.9730000000	156
25.0030000000	157
25.0330000000	163
25.0630000000	168
25.0930000000	191
25.1230000000	168
25.1530000000	177
25.1830000000	163
25.2130000000	146
25.2430000000	165
25.2730000000	154
25.3030000000	160
25.3330000000	186
25.3630000000	196
25.3930000000	170
25.4230000000	138
25.4530000000	177
25.4830000000	184
25.5130000000	153
25.5430000000	184
25.5730000000	178
25.6030000000	170
25.6330000000	152
25.6630000000	166
25.6930000000	178
25.7230000000	172
25.7530000000	162
25.7830000000	158
25.8130000000	173
25.8430000000	156
25.8730000000	177
25.9030000000	177
25.9330000000	172
25.9630000000	178
25.9930000000	151
26.0230000000	180
26.0530000000	185
26.0830000000	173
26.1130000000	174
26.1430000000	167
26.1730000000	179
26.2030000000	201
26.2330000000	228
26.2630000000	296
26.2930000000	385
26.3230000000	511
26.3530000000	629
26.3830000000	792
26.4130000000	997
26.4430000000	1016
26.4730000000	841
26.5030000000	632
26.5330000000	456
26.5630000000	333
26.5930000000	261
26.6230000000	219
26.6530000000	217
26.6830000000	189
26.7130000000	184
26.7430000000	191
26.7730000000	180
26.8030000000	167
26.8330000000	164
26.8630000000	166
26.8930000000	166
26.9230000000	154
26.9530000000	140
26.9830000000	143
27.0130000000	158
27.0430000000	168
27.0730000000	162
27.1030000000	146
27.1330000000	147
27.1630000000	174
27.1930000000	184
27.2230000000	155
27.2530000000	137
27.2830000000	165
27.3130000000	179
27.3430000000	149
27.3730000000	143
27.4030000000	146
27.4330000000	171
27.4630000000	139
27.4930000000	158
27.5230000000	151
27.5530000000	169
27.5830000000	168
27.6130000000	145
27.6430000000	136
27.6730000000	158
27.7030000000	137
27.7330000000	142
27.7630000000	159
27.7930000000	153
27.8230000000	151
27.8530000000	163
27.8830000000	145
27.9130000000	135
27.9430000000	147
27.9730000000	154
28.0030000000	138
28.0330000000	158
28.0630000000	150
28.0930000000	165
28.1230000000	133
28.1530000000	158
28.1830000000	146
28.2130000000	168
28.2430000000	146
28.2730000000	176
28.3030000000	166
28.3330000000	139
28.3630000000	128
28.3930000000	175
28.4230000000	135
28.4530000000	143
28.4830000000	143
28.5130000000	139
28.5430000000	152
28.5730000000	137
28.6030000000	157
28.6330000000	159
28.6630000000	143
28.6930000000	149
28.7230000000	153
28.7530000000	162
28.7830000000	151
28.8130000000	173
28.8430000000	161
28.8730000000	177
28.9030000000	151
28.9330000000	157
28.9630000000	166
28.9930000000	137
29.0230000000	159
29.0530000000	157
29.0830000000	141
29.1130000000	122
29.1430000000	140
29.1730000000	142
29.2030000000	133
29.2330000000	146
29.2630000000	131
29.2930000000	148
29.3230000000	150
29.3530000000	137
29.3830000000	130
29.4130000000	129
29.4430000000	146
29.4730000000	127
29.5030000000	110
29.5330000000	143
29.5630000000	139
29.5930000000	127
29.6230000000	128
29.6530000000	115
29.6830000000	127
29.7130000000	131
29.7430000000	129
29.7730000000	140
29.8030000000	133
29.8330000000	127
29.8630000000	125
29.8930000000	122
29.9230000000	146
29.9530000000	133
29.9830000000	140
30.0130000000	133
30.0430000000	163
30.0730000000	157
30.1030000000	170
30.1330000000	148
30.1630000000	214
30.1930000000	231
30.2230000000	312
30.2530000000	462
30.2830000000	680
30.3130000000	978
30.3430000000	1510
30.3730000000	2149
30.4030000000	2742
30.4330000000	2697
30.4630000000	2381
30.4930000000	1805
30.5230000000	1192
30.5530000000	757
30.5830000000	519
30.6130000000	377
30.6430000000	303
30.6730000000	222
30.7030000000	182
30.7330000000	180
30.7630000000	161
30.7930000000	162
30.8230000000	146
30.8530000000	157
30.8830000000	134
30.9130000000	142
30.9430000000	154
30.9730000000	147
31.0030000000	136
31.0330000000	127
31.0630000000	132
31.0930000000	123
31.1230000000	143
31.1530000000	134
31.1830000000	138
31.2130000000	140
31.2430000000	135
31.2730000000	140
31.3030000000	131
31.3330000000	148
31.3630000000	140
31.3930000000	131
31.4230000000	139
31.4530000000	142
31.4830000000	156
31.5130000000	138
31.5430000000	135
31.5730000000	130
31.6030000000	152
31.6330000000	183
31.6630000000	207
31.6930000000	267
31.7230000000	332
31.7530000000	447
31.7830000000	614
31.8130000000	882
31.8430000000	1313
31.8730000000	1641
31.9030000000	1679
31.9330000000	1568
31.9630000000	1206
31.9930000000	1012
32.0230000000	893
32.0530000000	966
32.0830000000	1035
32.1130000000	1136
32.1430000000	1201
32.1730000000	1073
32.2030000000	834
32.2330000000	598
32.2630000000	401
32.2930000000	298
32.3230000000	208
32.3530000000	164
32.3830000000	150
32.4130000000	128
32.4430000000	132
32.4730000000	136
32.5030000000	121
32.5330000000	130
32.5630000000	130
32.5930000000	118
32.6230000000	93
32.6530000000	106
32.6830000000	126
32.7130000000	100
32.7430000000	120
32.7730000000	108
32.8030000000	105
32.8330000000	114
32.8630000000	119
32.8930000000	107
32.9230000000	111
32.9530000000	123
32.9830000000	108
33.0130000000	110
33.0430000000	125
33.0730000000	104
33.1030000000	111
33.1330000000	133
33.1630000000	128
33.1930000000	124
33.2230000000	134
33.2530000000	149
33.2830000000	121
33.3130000000	127
33.3430000000	123
33.3730000000	113
33.4030000000	126
33.4330000000	125
33.4630000000	121
33.4930000000	108
33.5230000000	108
33.5530000000	104
33.5830000000	115
33.6130000000	105
33.6430000000	96
33.6730000000	110
33.7030000000	107
33.7330000000	99
33.7630000000	98
33.7930000000	91
33.8230000000	93
33.8530000000	111
33.8830000000	112
33.9130000000	101
33.9430000000	108
33.9730000000	96
34.0030000000	104
34.0330000000	101
34.0630000000	104
34.0930000000	89
34.1230000000	112
34.1530000000	95
34.1830000000	94
34.2130000000	109
34.2430000000	103
34.2730000000	95
34.3030000000	99
34.3330000000	82
34.3630000000	117
34.3930000000	114
34.4230000000	77
34.4530000000	99
34.4830000000	112
34.5130000000	83
34.5430000000	86
34.5730000000	84
34.6030000000	89
34.6330000000	102
34.6630000000	92
34.6930000000	103
34.7230000000	100
34.7530000000	95
34.7830000000	88
34.8130000000	97
34.8430000000	103
34.8730000000	106
34.9030000000	104
34.9330000000	102
34.9630000000	79
34.9930000000	101
35.0230000000	102
35.0530000000	89
35.0830000000	100
35.1130000000	120
35.1430000000	109
35.1730000000	118
35.2030000000	128
35.2330000000	150
35.2630000000	174
35.2930000000	229
35.3230000000	249
35.3530000000	250
35.3830000000	252
35.4130000000	219
35.4430000000	192
35.4730000000	162
35.5030000000	141
35.5330000000	125
35.5630000000	104
35.5930000000	103
35.6230000000	110
35.6530000000	118
35.6830000000	93
35.7130000000	93
35.7430000000	104
35.7730000000	113
35.8030000000	97
35.8330000000	76
35.8630000000	89
35.8930000000	93
35.9230000000	92
35.9530000000	96
35.9830000000	90
36.0130000000	106
36.0430000000	109
36.0730000000	105
36.1030000000	103
36.1330000000	86
36.1630000000	79
36.1930000000	100
36.2230000000	79
36.2530000000	100
36.2830000000	81
36.3130000000	95
36.3430000000	110
36.3730000000	94
36.4030000000	106
36.4330000000	108
36.4630000000	132
36.4930000000	144
36.5230000000	167
36.5530000000	220
36.5830000000	302
36.6130000000	379
36.6430000000	416
36.6730000000	423
36.7030000000	371
36.7330000000	301
36.7630000000	244
36.7930000000	195
36.8230000000	151
36.8530000000	109
36.8830000000	105
36.9130000000	97
36.9430000000	93
36.9730000000	106
37.0030000000	103
37.0330000000	101
37.0630000000	101
37.0930000000	86
37.1230000000	103
37.1530000000	89
37.1830000000	96
37.2130000000	91
37.2430000000	91
37.2730000000	95
37.3030000000	83
37.3330000000	82
37.3630000000	86
37.3930000000	97
37.4230000000	82
37.4530000000	95
37.4830000000	93
37.5130000000	69
37.5430000000	101
37.5730000000	85
37.6030000000	80
37.6330000000	92
37.6630000000	99
37.6930000000	93
37.7230000000	85
37.7530000000	85
37.7830000000	96
37.8130000000	89
37.8430000000	82
37.8730000000	92
37.9030000000	80
37.9330000000	86
37.9630000000	92
37.9930000000	86
38.0230000000	95
38.0530000000	84
38.0830000000	94
38.1130000000	84
38.1430000000	84
38.1730000000	96
38.2030000000	86
38.2330000000	89
38.2630000000	82
38.2930000000	81
38.3230000000	81
38.3530000000	83
38.3830000000	74
38.4130000000	76
38.4430000000	80
38.4730000000	73
38.5030000000	86
38.5330000000	94
38.5630000000	91
38.5930000000	101
38.6230000000	94
38.6530000000	84
38.6830000000	65
38.7130000000	75
38.7430000000	94
38.7730000000	84
38.8030000000	83
38.8330000000	104
38.8630000000	100
38.8930000000	90
38.9230000000	94
38.9530000000	96
38.9830000000	109
39.0130000000	106
39.0430000000	91
39.0730000000	98
39.1030000000	76
39.1330000000	85
39.1630000000	94
39.1930000000	82
39.2230000000	80
39.2530000000	92
39.2830000000	85
39.3130000000	110
39.3430000000	94
39.3730000000	97
39.4030000000	95
39.4330000000	98
39.4630000000	112
39.4930000000	109
39.5230000000	128
39.5530000000	189
39.5830000000	237
39.6130000000	339
39.6430000000	490
39.6730000000	709
39.7030000000	950
39.7330000000	1156
39.7630000000	1211
39.7930000000	1063
39.8230000000	882
39.8530000000	667
39.8830000000	471
39.9130000000	336
39.9430000000	201
39.9730000000	148
40.0030000000	138
40.0330000000	118
40.0630000000	108
40.0930000000	102
40.1230000000	73
40.1530000000	89
40.1830000000	86
40.2130000000	73
40.2430000000	88
40.2730000000	80
40.3030000000	99
40.3330000000	75
40.3630000000	83
40.3930000000	87
40.4230000000	88
40.4530000000	92
40.4830000000	81
40.5130000000	76
40.5430000000	90
40.5730000000	88
40.6030000000	89
40.6330000000	84
40.6630000000	103
40.6930000000	91
40.7230000000	90
40.7530000000	97
40.7830000000	95
40.8130000000	99
40.8430000000	104
40.8730000000	80
40.9030000000	94
40.9330000000	86
40.9630000000	79
40.9930000000	96
41.0230000000	97
41.0530000000	77
41.0830000000	101
41.1130000000	82
41.1430000000	98
41.1730000000	97
41.2030000000	96
41.2330000000	87
41.2630000000	75
41.2930000000	90
41.3230000000	101
41.3530000000	84
41.3830000000	67
41.4130000000	79
41.4430000000	75
41.4730000000	76
41.5030000000	74
41.5330000000	78
41.5630000000	87
41.5930000000	79
41.6230000000	77
41.6530000000	73
41.6830000000	82
41.7130000000	90
41.7430000000	86
41.7730000000	84
41.8030000000	82
41.8330000000	95
41.8630000000	80
41.8930000000	90
41.9230000000	82
41.9530000000	73
41.9830000000	85
42.0130000000	83
42.0430000000	78
42.0730000000	74
42.1030000000	72
42.1330000000	85
42.1630000000	83
42.1930000000	81
42.2230000000	87
42.2530000000	83
42.2830000000	81
42.3130000000	74
42.3430000000	74
42.3730000000	81
42.4030000000	71
42.4330000000	72
42.4630000000	83
42.4930000000	84
42.5230000000	87
42.5530000000	99
42.5830000000	85
42.6130000000	81
42.6430000000	89
42.6730000000	74
42.7030000000	91
42.7330000000	104
42.7630000000	91
42.7930000000	87
42.8230000000	80
42.8530000000	98
42.8830000000	91
42.9130000000	122
42.9430000000	134
42.9730000000	139
43.0030000000	160
43.0330000000	261
43.0630000000	336
43.0930000000	451
43.1230000000	660
43.1530000000	942
43.1830000000	1243
43.2130000000	1276
43.2430000000	1198
43.2730000000	1034
43.3030000000	875
43.3330000000	587
43.3630000000	401
43.3930000000	279
43.4230000000	180
43.4530000000	152
43.4830000000	112
43.5130000000	115
43.5430000000	98
43.5730000000	93
43.6030000000	95
43.6330000000	106
43.6630000000	110
43.6930000000	122
43.7230000000	109
43.7530000000	112
43.7830000000	112
43.8130000000	109
43.8430000000	100
43.8730000000	104
43.9030000000	94
43.9330000000	84
43.9630000000	71
43.9930000000	91
44.0230000000	78
44.0530000000	67
44.0830000000	74
44.1130000000	90
44.1430000000	92
44.1730000000	79
44.2030000000	78
44.2330000000	70
44.2630000000	70
44.2930000000	75
44.3230000000	69
44.3530000000	68
44.3830000000	77
44.4130000000	74
44.4430000000	84
44.4730000000	69
44.5030000000	67
44.5330000000	70
44.5630000000	73
44.5930000000	66
44.6230000000	79
44.6530000000	99
44.6830000000	77
44.7130000000	85
44.7430000000	85
44.7730000000	78
44.8030000000	95
44.8330000000	100
44.8630000000	113
44.8930000000	140
44.9230000000	204
44.9530000000	249
44.9830000000	370
45.0130000000	501
45.0430000000	680
45.0730000000	847
45.1030000000	847
45.1330000000	771
45.1630000000	691
45.1930000000	492
45.2230000000	360
45.2530000000	237
45.2830000000	180
45.3130000000	130
45.3430000000	116
45.3730000000	93
45.4030000000	83
45.4330000000	81
45.4630000000	77
45.4930000000	89
45.5230000000	76
45.5530000000	74
45.5830000000	68
45.6130000000	70
45.6430000000	65
45.6730000000	73
45.7030000000	78
45.7330000000	76
45.7630000000	82
45.7930000000	62
45.8230000000	64
45.8530000000	60
45.8830000000	73
45.9130000000	80
45.9430000000	109
45.9730000000	106
46.0030000000	118
46.0330000000	159
46.0630000000	183
46.0930000000	208
46.1230000000	179
46.1530000000	171
46.1830000000	193
46.2130000000	139
46.2430000000	111
46.2730000000	113
46.3030000000	82
46.3330000000	76
46.3630000000	82
46.3930000000	107
46.4230000000	105
46.4530000000	123
46.4830000000	105
46.5130000000	113
46.5430000000	105
46.5730000000	80
46.6030000000	78
46.6330000000	95
46.6630000000	83
46.6930000000	83
46.7230000000	82
46.7530000000	83
46.7830000000	78
46.8130000000	94
46.8430000000	98
46.8730000000	115
46.9030000000	159
46.9330000000	209
46.9630000000	291
46.9930000000	303
47.0230000000	245
47.0530000000	229
47.0830000000	177
47.1130000000	163
47.1430000000	136
47.1730000000	89
47.2030000000	89
47.2330000000	71
47.2630000000	59
47.2930000000	58
47.3230000000	61
47.3530000000	68
47.3830000000	62
47.4130000000	73
47.4430000000	77
47.4730000000	100
47.5030000000	71
47.5330000000	79
47.5630000000	90
47.5930000000	87
47.6230000000	91
47.6530000000	79
47.6830000000	77
47.7130000000	77
47.7430000000	68
47.7730000000	71
47.8030000000	59
47.8330000000	63
47.8630000000	61
47.8930000000	57
47.9230000000	63
47.9530000000	53
47.9830000000	54
48.0130000000	57
48.0430000000	66
48.0730000000	62
48.1030000000	59
48.1330000000	50
48.1630000000	62
48.1930000000	57
48.2230000000	58
48.2530000000	65
48.2830000000	55
48.3130000000	54
48.3430000000	64
48.3730000000	55
48.4030000000	50
48.4330000000	57
48.4630000000	58
48.4930000000	56
48.5230000000	56
48.5530000000	55
48.5830000000	60
48.6130000000	56
48.6430000000	51
48.6730000000	58
48.7030000000	60
48.7330000000	66
48.7630000000	55
48.7930000000	65
48.8230000000	61
48.8530000000	45
48.8830000000	66
48.9130000000	60
48.9430000000	53
48.9730000000	57
49.0030000000	45
49.0330000000	50
49.0630000000	58
49.0930000000	51
49.1230000000	54
49.1530000000	59
49.1830000000	51
49.2130000000	54
49.2430000000	49
49.2730000000	61
49.3030000000	50
49.3330000000	52
49.3630000000	54
49.3930000000	53
49.4230000000	60
49.4530000000	39
49.4830000000	56
49.5130000000	62
49.5430000000	59
49.5730000000	54
49.6030000000	47
49.6330000000	54
49.6630000000	44
49.6930000000	56
49.7230000000	55
49.7530000000	55
49.7830000000	59
49.8130000000	65
49.8430000000	44
49.8730000000	66
49.9030000000	55
49.9330000000	60
49.9630000000	40
49.9930000000	69
50.0230000000	57
50.0530000000	56
50.0830000000	59
50.1130000000	49
50.1430000000	58
50.1730000000	57
50.2030000000	61
50.2330000000	51
50.2630000000	63
50.2930000000	61
50.3230000000	64
50.3530000000	77
50.3830000000	54
50.4130000000	66
50.4430000000	80
50.4730000000	85
50.5030000000	100
50.5330000000	97
50.5630000000	78
50.5930000000	70
50.6230000000	82
50.6530000000	77
50.6830000000	64
50.7130000000	54
50.7430000000	58
50.7730000000	56
50.8030000000	56
50.8330000000	55
50.8630000000	66
50.8930000000	61
50.9230000000	43
50.9530000000	45
50.9830000000	57
51.0130000000	52
51.0430000000	54
51.0730000000	50
51.1030000000	51
51.1330000000	53
51.1630000000	51
51.1930000000	44
51.2230000000	47
51.2530000000	59
51.2830000000	55
51.3130000000	57
51.3430000000	48
51.3730000000	45
51.4030000000	49
51.4330000000	54
51.4630000000	48
51.4930000000	45
51.5230000000	57
51.5530000000	60
51.5830000000	66
51.6130000000	46
51.6430000000	49
51.6730000000	55
51.7030000000	63
51.7330000000	59
51.7630000000	66
51.7930000000	53
51.8230000000	50
51.8530000000	48
51.8830000000	57
51.9130000000	55
51.9430000000	46
51.9730000000	55
52.0030000000	49
52.0330000000	57
52.0630000000	58
52.0930000000	57
52.1230000000	92
52.1530000000	77
52.1830000000	94
52.2130000000	81
52.2430000000	85
52.2730000000	76
52.3030000000	68
52.3330000000	77
52.3630000000	62
52.3930000000	58
52.4230000000	50
52.4530000000	51
52.4830000000	53
52.5130000000	55
52.5430000000	58
52.5730000000	53
52.6030000000	50
52.6330000000	52
52.6630000000	41
52.6930000000	56
52.7230000000	50
52.7530000000	57
52.7830000000	51
52.8130000000	51
52.8430000000	43
52.8730000000	49
52.9030000000	46
52.9330000000	43
52.9630000000	51
52.9930000000	54
53.0230000000	41
53.0530000000	49
53.0830000000	54
53.1130000000	54
53.1430000000	48
53.1730000000	48
53.2030000000	50
53.2330000000	63
53.2630000000	47
53.2930000000	48
53.3230000000	48
53.3530000000	52
53.3830000000	37
53.4130000000	58
53.4430000000	59
53.4730000000	47
53.5030000000	55
53.5330000000	51
53.5630000000	47
53.5930000000	38
53.6230000000	53
53.6530000000	53
53.6830000000	61
53.7130000000	48
53.7430000000	59
53.7730000000	71
53.8030000000	75
53.8330000000	88
53.8630000000	121
53.8930000000	124
53.9230000000	116
53.9530000000	105
53.9830000000	107
54.0130000000	109
54.0430000000	90
54.0730000000	60
54.1030000000	65
54.1330000000	52
54.1630000000	47
54.1930000000	49
54.2230000000	52
54.2530000000	43
54.2830000000	65
54.3130000000	68
54.3430000000	46
54.3730000000	65
54.4030000000	47
54.4330000000	59
54.4630000000	67
54.4930000000	42
54.5230000000	55
54.5530000000	57
54.5830000000	47
54.6130000000	46
54.6430000000	56
54.6730000000	39
54.7030000000	46
54.7330000000	48
54.7630000000	48
54.7930000000	61
54.8230000000	59
54.8530000000	62
54.8830000000	67
54.9130000000	91
54.9430000000	111
54.9730000000	121
55.0030000000	117
55.0330000000	119
55.0630000000	120
55.0930000000	100
55.1230000000	100
55.1530000000	88
55.1830000000	95
55.2130000000	67
55.2430000000	59
55.2730000000	55
55.3030000000	54
55.3330000000	54
55.3630000000	80
55.3930000000	96
55.4230000000	120
55.4530000000	135
55.4830000000	132
55.5130000000	115
55.5430000000	106
55.5730000000	109
55.6030000000	90
55.6330000000	94
55.6630000000	78
55.6930000000	70
55.7230000000	49
55.7530000000	54
55.7830000000	45
55.8130000000	49
55.8430000000	49
55.8730000000	47
55.9030000000	46
55.9330000000	49
55.9630000000	47
55.9930000000	46
56.0230000000	62
56.0530000000	51
56.0830000000	60
56.1130000000	57
56.1430000000	34
56.1730000000	42
56.2030000000	51
56.2330000000	46
56.2630000000	45
56.2930000000	49
56.3230000000	41
56.3530000000	51
56.3830000000	53
56.4130000000	38
56.4430000000	42
56.4730000000	51
56.5030000000	50
56.5330000000	38
56.5630000000	37
56.5930000000	43
56.6230000000	56
56.6530000000	50
56.6830000000	41
56.7130000000	43
56.7430000000	52
56.7730000000	47
56.8030000000	40
56.8330000000	48
56.8630000000	44
56.8930000000	46
56.9230000000	39
56.9530000000	50
56.9830000000	49
57.0130000000	51
57.0430000000	41
57.0730000000	50
57.1030000000	60
57.1330000000	49
57.1630000000	47
57.1930000000	47
57.2230000000	44
57.2530000000	42
57.2830000000	42
57.3130000000	40
57.3430000000	44
57.3730000000	47
57.4030000000	42
57.4330000000	51
57.4630000000	38
57.4930000000	38
57.5230000000	46
57.5530000000	43
57.5830000000	33
57.6130000000	46
57.6430000000	42
57.6730000000	47
57.7030000000	50
57.7330000000	47
57.7630000000	45
57.7930000000	44
57.8230000000	45
57.8530000000	38
57.8830000000	45
57.9130000000	36
57.9430000000	41
57.9730000000	53
58.0030000000	43
58.0330000000	36
58.0630000000	58
58.0930000000	47
58.1230000000	48
58.1530000000	54
58.1830000000	52
58.2130000000	44
58.2430000000	46
58.2730000000	49
58.3030000000	56
58.3330000000	36
58.3630000000	40
58.3930000000	56
58.4230000000	45
58.4530000000	50
58.4830000000	49
58.5130000000	58
58.5430000000	30
58.5730000000	43
58.6030000000	43
58.6330000000	37
58.6630000000	55
58.6930000000	45
58.7230000000	47
58.7530000000	43
58.7830000000	45
58.8130000000	46
58.8430000000	47
58.8730000000	49
58.9030000000	46
58.9330000000	51
58.9630000000	43
58.9930000000	48
59.0230000000	52
59.0530000000	53
59.0830000000	47
59.1130000000	44
59.1430000000	41
59.1730000000	48
59.2030000000	46
59.2330000000	42
59.2630000000	38
59.2930000000	39
59.3230000000	52
59.3530000000	42
59.3830000000	39
59.4130000000	41
59.4430000000	52
59.4730000000	41
59.5030000000	45
59.5330000000	47
59.5630000000	52
59.5930000000	43
59.6230000000	44
59.6530000000	46
59.6830000000	37
59.7130000000	44
59.7430000000	48
59.7730000000	47
59.8030000000	55
59.8330000000	45
59.8630000000	55
59.8930000000	49
59.9230000000	46
59.9530000000	40
59.9830000000	55
60.0130000000	52
60.0430000000	65
60.0730000000	63
60.1030000000	50
60.1330000000	55
60.1630000000	92
60.1930000000	109
60.2230000000	132
60.2530000000	157
60.2830000000	147
60.3130000000	136
60.3430000000	113
60.3730000000	87
60.4030000000	94
60.4330000000	85
60.4630000000	70
60.4930000000	55
60.5230000000	58
60.5530000000	57
60.5830000000	53
60.6130000000	45
60.6430000000	44
60.6730000000	50
60.7030000000	52
60.7330000000	39
60.7630000000	44
60.7930000000	41
60.8230000000	44
60.8530000000	35
60.8830000000	40
60.9130000000	36
60.9430000000	41
60.9730000000	44
61.0030000000	36
61.0330000000	46
61.0630000000	44
61.0930000000	44
61.1230000000	44
61.1530000000	53
61.1830000000	54
61.2130000000	58
61.2430000000	65
61.2730000000	51
61.3030000000	54
61.3330000000	63
61.3630000000	57
61.3930000000	79
61.4230000000	79
61.4530000000	73
61.4830000000	84
61.5130000000	126
61.5430000000	125
61.5730000000	113
61.6030000000	117
61.6330000000	105
61.6630000000	92
61.6930000000	78
61.7230000000	86
61.7530000000	74
61.7830000000	57
61.8130000000	66
61.8430000000	54
61.8730000000	56
61.9030000000	42
61.9330000000	55
61.9630000000	37
61.9930000000	46
62.0230000000	35
62.0530000000	49
62.0830000000	45
62.1130000000	49
62.1430000000	48
62.1730000000	42
62.2030000000	41
62.2330000000	36
62.2630000000	47
62.2930000000	46
62.3230000000	40
62.3530000000	36
62.3830000000	49
62.4130000000	54
62.4430000000	47
62.4730000000	41
62.5030000000	53
62.5330000000	46
62.5630000000	51
62.5930000000	50
62.6230000000	47
62.6530000000	45
62.6830000000	41
62.7130000000	44
62.7430000000	53
62.7730000000	53
62.8030000000	50
62.8330000000	40
62.8630000000	38
62.8930000000	41
62.9230000000	38
62.9530000000	56
62.9830000000	45
63.0130000000	39
63.0430000000	42
63.0730000000	45
63.1030000000	44
63.1330000000	44
63.1630000000	36
63.1930000000	39
63.2230000000	43
63.2530000000	54
63.2830000000	54
63.3130000000	45
63.3430000000	55
63.3730000000	57
63.4030000000	43
63.4330000000	36
63.4630000000	50
63.4930000000	45
63.5230000000	48
63.5530000000	36
63.5830000000	42
63.6130000000	33
63.6430000000	41
63.6730000000	44
63.7030000000	43
63.7330000000	51
63.7630000000	38
63.7930000000	39
63.8230000000	39
63.8530000000	48
63.8830000000	43
63.9130000000	41
63.9430000000	39
63.9730000000	35
64.0030000000	59
64.0330000000	39
64.0630000000	41
64.0930000000	41
64.1230000000	41
64.1530000000	48
64.1830000000	29
64.2130000000	42
64.2430000000	41
64.2730000000	51
64.3030000000	48
64.3330000000	47
64.3630000000	31
64.3930000000	37
64.4230000000	41
64.4530000000	35
64.4830000000	44
64.5130000000	46
64.5430000000	32
64.5730000000	45
64.6030000000	49
64.6330000000	47
64.6630000000	49
64.6930000000	43
64.7230000000	48
64.7530000000	53
64.7830000000	46
64.8130000000	40
64.8430000000	38
64.8730000000	42
64.9030000000	48
64.9330000000	51
64.9630000000	38
64.9930000000	45
65.0230000000	48
65.0530000000	39
65.0830000000	47
65.1130000000	47
65.1430000000	55
65.1730000000	42
65.2030000000	38
65.2330000000	31
65.2630000000	41
65.2930000000	53
65.3230000000	51
65.3530000000	38
65.3830000000	36
65.4130000000	48
65.4430000000	38
65.4730000000	37
65.5030000000	43
65.5330000000	47
65.5630000000	35
65.5930000000	44
65.6230000000	41
65.6530000000	24
65.6830000000	34
65.7130000000	41
65.7430000000	34
65.7730000000	43
65.8030000000	51
65.8330000000	47
65.8630000000	39
65.8930000000	50
65.9230000000	46
65.9530000000	59
65.9830000000	35
66.0130000000	38
66.0430000000	58
66.0730000000	58
66.1030000000	57
66.1330000000	78
66.1630000000	104
66.1930000000	126
66.2230000000	150
66.2530000000	191
66.2830000000	174
66.3130000000	139
66.3430000000	142
66.3730000000	132
66.4030000000	135
66.4330000000	107
66.4630000000	83
66.4930000000	73
66.5230000000	68
66.5530000000	71
66.5830000000	61
66.6130000000	54
66.6430000000	70
66.6730000000	57
66.7030000000	60
66.7330000000	56
66.7630000000	43
66.7930000000	49
66.8230000000	45
66.8530000000	53
66.8830000000	42
66.9130000000	53
66.9430000000	47
66.9730000000	44
67.0030000000	45
67.0330000000	39
67.0630000000	44
67.0930000000	45
67.1230000000	44
67.1530000000	46
67.1830000000	47
67.2130000000	43
67.2430000000	39
67.2730000000	37
67.3030000000	33
67.3330000000	26
67.3630000000	46
67.3930000000	42
67.4230000000	51
67.4530000000	35
67.4830000000	34
67.5130000000	48
67.5430000000	44
67.5730000000	50
67.6030000000	36
67.6330000000	52
67.6630000000	40
67.6930000000	37
67.7230000000	50
67.7530000000	43
67.7830000000	46
67.8130000000	45
67.8430000000	38
67.8730000000	38
67.9030000000	32
67.9330000000	36
67.9630000000	36
67.9930000000	39
68.0230000000	54
68.0530000000	52
68.0830000000	35
68.1130000000	47
68.1430000000	44
68.1730000000	37
68.2030000000	41
68.2330000000	43
68.2630000000	42
68.2930000000	44
68.3230000000	42
68.3530000000	42
68.3830000000	49
68.4130000000	40
68.4430000000	44
68.4730000000	46
68.5030000000	37
68.5330000000	38
68.5630000000	44
68.5930000000	34
68.6230000000	40
68.6530000000	40
68.6830000000	37
68.7130000000	35
68.7430000000	50
68.7730000000	54
68.8030000000	49
68.8330000000	41
68.8630000000	47
68.8930000000	42
68.9230000000	41
68.9530000000	42
68.9830000000	25
69.0130000000	29
69.0430000000	37
69.0730000000	52
69.1030000000	49
69.1330000000	47
69.1630000000	42
69.1930000000	44
69.2230000000	51
69.2530000000	61
69.2830000000	45
69.3130000000	31
69.3430000000	45
69.3730000000	42
69.4030000000	50
69.4330000000	52
69.4630000000	41
69.4930000000	35
69.5230000000	52
69.5530000000	52
69.5830000000	40
69.6130000000	47
69.6430000000	51
69.6730000000	55
69.7030000000	47
69.7330000000	34
69.7630000000	46
69.7930000000	47
69.8230000000	39
69.8530000000	44
69.8830000000	40
69.9130000000	27
69.9430000000	40
69.9730000000	51
70.0030000000	55
70.0330000000	27
70.0630000000	40
70.0930000000	36
70.1230000000	36
70.1530000000	48
70.1830000000	32
70.2130000000	40
70.2430000000	42
70.2730000000	38
70.3030000000	40
70.3330000000	31
70.3630000000	36
70.3930000000	42
70.4230000000	40
70.4530000000	31
70.4830000000	40
70.5130000000	47
70.5430000000	38
70.5730000000	38
70.6030000000	50
70.6330000000	51
70.6630000000	27
70.6930000000	42
70.7230000000	46
70.7530000000	45
70.7830000000	46
70.8130000000	51
70.8430000000	33
70.8730000000	34
70.9030000000	34
70.9330000000	44
70.9630000000	45
70.9930000000	48
71.0230000000	38
71.0530000000	45
71.0830000000	49
71.1130000000	40
71.1430000000	38
71.1730000000	43
71.2030000000	41
71.2330000000	47
71.2630000000	30
71.2930000000	43
71.3230000000	52
71.3530000000	38
71.3830000000	38
71.4130000000	41
71.4430000000	41
71.4730000000	41
71.5030000000	45
71.5330000000	43
71.5630000000	48
71.5930000000	43
71.6230000000	34
71.6530000000	41
71.6830000000	41
71.7130000000	46
71.7430000000	43
71.7730000000	38
71.8030000000	53
71.8330000000	45
71.8630000000	41
71.8930000000	48
71.9230000000	67
71.9530000000	56
71.9830000000	53
72.0130000000	63
72.0430000000	64
72.0730000000	57
72.1030000000	45
72.1330000000	39
72.1630000000	58
72.1930000000	58
72.2230000000	57
72.2530000000	88
72.2830000000	85
72.3130000000	92
72.3430000000	86
72.3730000000	106
72.4030000000	105
72.4330000000	105
72.4630000000	89
72.4930000000	91
72.5230000000	88
72.5530000000	91
72.5830000000	96
72.6130000000	80
72.6430000000	48
72.6730000000	61
72.7030000000	64
72.7330000000	68
72.7630000000	78
72.7930000000	119
72.8230000000	109
72.8530000000	135
72.8830000000	142
72.9130000000	137
72.9430000000	130
72.9730000000	127
73.0030000000	121
73.0330000000	102
73.0630000000	109
73.0930000000	101
73.1230000000	84
73.1530000000	86
73.1830000000	68
73.2130000000	72
73.2430000000	61
73.2730000000	66
73.3030000000	45
73.3330000000	48
73.3630000000	62
73.3930000000	49
73.4230000000	49
73.4530000000	46
73.4830000000	52
73.5130000000	40
73.5430000000	41
73.5730000000	38
73.6030000000	34
73.6330000000	38
73.6630000000	42
73.6930000000	39
73.7230000000	33
73.7530000000	40
73.7830000000	48
73.8130000000	52
73.8430000000	33
73.8730000000	48
73.9030000000	52
73.9330000000	46
73.9630000000	30
73.9930000000	47
74.0230000000	42
74.0530000000	49
74.0830000000	36
74.1130000000	54
74.1430000000	38
74.1730000000	44
74.2030000000	53
74.2330000000	46
74.2630000000	47
74.2930000000	33
74.3230000000	33
74.3530000000	46
74.3830000000	55
74.4130000000	42
74.4430000000	41
74.4730000000	37
74.5030000000	49
74.5330000000	46
74.5630000000	40
74.5930000000	39
74.6230000000	48
74.6530000000	46
74.6830000000	38
74.7130000000	42
74.7430000000	52
74.7730000000	57
74.8030000000	55
74.8330000000	48
74.8630000000	49
74.8930000000	48
74.9230000000	37
74.9530000000	55
74.9830000000	50
75.0130000000	48
75.0430000000	50
75.0730000000	51
75.1030000000	50
75.1330000000	55
75.1630000000	59
75.1930000000	50
75.2230000000	50
75.2530000000	56
75.2830000000	45
75.3130000000	44
75.3430000000	50
75.3730000000	57
75.4030000000	54
75.4330000000	41
75.4630000000	44
75.4930000000	55
75.5230000000	44
75.5530000000	52
75.5830000000	44
75.6130000000	42
75.6430000000	34
75.6730000000	44
75.7030000000	37
75.7330000000	39
75.7630000000	40
75.7930000000	39
75.8230000000	37
75.8530000000	41
75.8830000000	40
75.9130000000	45
75.9430000000	42
75.9730000000	36
76.0030000000	33
76.0330000000	37
76.0630000000	38
76.0930000000	45
76.1230000000	52
76.1530000000	36
76.1830000000	35
76.2130000000	44
76.2430000000	33
76.2730000000	35
76.3030000000	45
76.3330000000	43
76.3630000000	44
76.3930000000	38
76.4230000000	36
76.4530000000	40
76.4830000000	43
76.5130000000	30
76.5430000000	36
76.5730000000	41
76.6030000000	43
76.6330000000	36
76.6630000000	47
76.6930000000	53
76.7230000000	50
76.7530000000	33
76.7830000000	41
76.8130000000	37
76.8430000000	36
76.8730000000	50
76.9030000000	32
76.9330000000	31
76.9630000000	51
76.9930000000	34
77.0230000000	50
77.0530000000	39
77.0830000000	39
77.1130000000	38
77.1430000000	42
77.1730000000	50
77.2030000000	40
77.2330000000	48
77.2630000000	42
77.2930000000	36
77.3230000000	35
77.3530000000	31
77.3830000000	36
77.4130000000	45
77.4430000000	56
77.4730000000	45
77.5030000000	63
77.5330000000	71
77.5630000000	76
77.5930000000	65
77.6230000000	59
77.6530000000	73
77.6830000000	57
77.7130000000	46
77.7430000000	65
77.7730000000	75
77.8030000000	41
77.8330000000	55
77.8630000000	49
77.8930000000	45
77.9230000000	53
77.9530000000	45
77.9830000000	46
78.0130000000	52
78.0430000000	55
78.0730000000	44
78.1030000000	51
78.1330000000	53
78.1630000000	53
78.1930000000	46
78.2230000000	44
78.2530000000	42
78.2830000000	38
78.3130000000	36
78.3430000000	37
78.3730000000	40
78.4030000000	39
78.4330000000	36
78.4630000000	42
78.4930000000	56
78.5230000000	35
78.5530000000	46
78.5830000000	52
78.6130000000	41
78.6430000000	42
78.6730000000	52
78.7030000000	39
78.7330000000	41
78.7630000000	59
78.7930000000	56
78.8230000000	70
78.8530000000	35
78.8830000000	44
78.9130000000	46
78.9430000000	53
78.9730000000	51
79.0030000000	42
79.0330000000	43
79.0630000000	41
79.0930000000	50
79.1230000000	28
79.1530000000	34
79.1830000000	40
79.2130000000	53
79.2430000000	45
79.2730000000	39
79.3030000000	28
79.3330000000	37
79.3630000000	37
79.3930000000	40
79.4230000000	35
79.4530000000	31
79.4830000000	33
79.5130000000	47
79.5430000000	28
79.5730000000	33
79.6030000000	41
79.6330000000	39
79.6630000000	34
79.6930000000	41
79.7230000000	53
79.7530000000	34
79.7830000000	45
79.8130000000	55
79.8430000000	53
79.8730000000	45
79.9030000000	52
79.9330000000	40
79.9630000000	49
79.9930000000	50
80.0230000000	30
80.0530000000	42
80.0830000000	25
80.1130000000	39
80.1430000000	39
80.1730000000	35
80.2030000000	41
80.2330000000	42
80.2630000000	38
80.2930000000	42
80.3230000000	48
80.3530000000	34
80.3830000000	42
80.4130000000	39
80.4430000000	38
80.4730000000	41
80.5030000000	51
80.5330000000	63
80.5630000000	47
80.5930000000	55
80.6230000000	69
80.6530000000	51
80.6830000000	66
80.7130000000	60
80.7430000000	61
80.7730000000	74
80.8030000000	51
80.8330000000	52
80.8630000000	46
80.8930000000	53
80.9230000000	59
80.9530000000	37
80.9830000000	35
81.0130000000	53
81.0430000000	29
81.0730000000	27
81.1030000000	44
81.1330000000	34
81.1630000000	39
81.1930000000	50
81.2230000000	38
81.2530000000	54
81.2830000000	40
81.3130000000	35
81.3430000000	38
81.3730000000	43
81.4030000000	53
81.4330000000	36
81.4630000000	55
81.4930000000	37
81.5230000000	45
81.5530000000	33
81.5830000000	35
81.6130000000	43
81.6430000000	35
81.6730000000	41
81.7030000000	43
81.7330000000	35
81.7630000000	35
81.7930000000	49
81.8230000000	40
81.8530000000	40
81.8830000000	43
81.9130000000	30
81.9430000000	36
81.9730000000	28
82.0030000000	43
82.0330000000	31
82.0630000000	30
82.0930000000	29
82.1230000000	31
82.1530000000	49
82.1830000000	37
82.2130000000	31
82.2430000000	33
82.2730000000	40
82.3030000000	39
82.3330000000	40
82.3630000000	38
82.3930000000	40
82.4230000000	42
82.4530000000	43
82.4830000000	35
82.5130000000	36
82.5430000000	44
82.5730000000	37
82.6030000000	30
82.6330000000	42
82.6630000000	36
82.6930000000	38
82.7230000000	44
82.7530000000	33
82.7830000000	39
82.8130000000	48
82.8430000000	42
82.8730000000	29
82.9030000000	37
82.9330000000	39
82.9630000000	36
82.9930000000	37
83.0230000000	43
83.0530000000	51
83.0830000000	41
83.1130000000	44
83.1430000000	42
83.1730000000	48
83.2030000000	44
83.2330000000	50
83.2630000000	62
83.2930000000	52
83.3230000000	56
83.3530000000	57
83.3830000000	58
83.4130000000	54
83.4430000000	48
83.4730000000	61
83.5030000000	58
83.5330000000	62
83.5630000000	47
83.5930000000	45
83.6230000000	33
83.6530000000	34
83.6830000000	38
83.7130000000	42
83.7430000000	39
83.7730000000	49
83.8030000000	44
83.8330000000	40
83.8630000000	40
83.8930000000	41
83.9230000000	31
83.9530000000	37
83.9830000000	35
84.0130000000	34
84.0430000000	37
84.0730000000	48
84.1030000000	44
84.1330000000	40
84.1630000000	40
84.1930000000	31
84.2230000000	32
84.2530000000	35
84.2830000000	43
84.3130000000	29
84.3430000000	33
84.3730000000	40
84.4030000000	33
84.4330000000	43
84.4630000000	41
84.4930000000	38
84.5230000000	28
84.5530000000	37
84.5830000000	31
84.6130000000	39
84.6430000000	34
84.6730000000	34
84.7030000000	40
84.7330000000	36
84.7630000000	38
84.7930000000	31
84.8230000000	28
84.8530000000	32
84.8830000000	42
84.9130000000	35
84.9430000000	31
84.9730000000	37
85.0030000000	32
85.0330000000	39
85.0630000000	40
85.0930000000	44
85.1230000000	33
85.1530000000	35
85.1830000000	44
85.2130000000	44
85.2430000000	38
85.2730000000	41
85.3030000000	37
85.3330000000	42
85.3630000000	30
85.3930000000	29
85.4230000000	51
85.4530000000	49
85.4830000000	45
85.5130000000	43
85.5430000000	38
85.5730000000	48
85.6030000000	45
85.6330000000	51
85.6630000000	53
85.6930000000	40
85.7230000000	49
85.7530000000	50
85.7830000000	37
85.8130000000	37
85.8430000000	50
85.8730000000	40
85.9030000000	41
85.9330000000	46
85.9630000000	39
85.9930000000	37
86.0230000000	40
86.0530000000	36
86.0830000000	25
86.1130000000	38
86.1430000000	40
86.1730000000	37
86.2030000000	36
86.2330000000	43
86.2630000000	39
86.2930000000	40
86.3230000000	42
86.3530000000	37
86.3830000000	26
86.4130000000	47
86.4430000000	38
86.4730000000	44
86.5030000000	45
86.5330000000	24
86.5630000000	36
86.5930000000	53
86.6230000000	48
86.6530000000	31
86.6830000000	43
86.7130000000	48
86.7430000000	40
86.7730000000	36
86.8030000000	40
86.8330000000	44
86.8630000000	49
86.8930000000	53
86.9230000000	52
86.9530000000	45
86.9830000000	47
87.0130000000	40
87.0430000000	37
87.0730000000	49
87.1030000000	41
87.1330000000	31
87.1630000000	38
87.1930000000	45
87.2230000000	41
87.2530000000	37
87.2830000000	46
87.3130000000	48
87.3430000000	35
87.3730000000	34
87.4030000000	46
87.4330000000	41
87.4630000000	49
87.4930000000	40
87.5230000000	49
87.5530000000	46
87.5830000000	47
87.6130000000	38
87.6430000000	45
87.6730000000	48
87.7030000000	50
87.7330000000	37
87.7630000000	30
87.7930000000	36
87.8230000000	44
87.8530000000	30
87.8830000000	40
87.9130000000	43
87.9430000000	31
87.9730000000	30
88.0030000000	39
88.0330000000	32
88.0630000000	40
88.0930000000	35
88.1230000000	38
88.1530000000	41
88.1830000000	51
88.2130000000	31
88.2430000000	47
88.2730000000	52
88.3030000000	48
88.3330000000	52
88.3630000000	43
88.3930000000	48
88.4230000000	50
88.4530000000	51
88.4830000000	43
88.5130000000	44
88.5430000000	42
88.5730000000	33
88.6030000000	47
88.6330000000	47
88.6630000000	34
88.6930000000	43
88.7230000000	37
88.7530000000	33
88.7830000000	44
88.8130000000	44
88.8430000000	37
88.8730000000	40
88.9030000000	38
88.9330000000	41
88.9630000000	33
88.9930000000	44
89.0230000000	41
89.0530000000	30
89.0830000000	40
89.1130000000	37
89.1430000000	37
89.1730000000	42
89.2030000000	45
89.2330000000	31
89.2630000000	41
89.2930000000	27
89.3230000000	28
89.3530000000	32
89.3830000000	33
89.4130000000	42
89.4430000000	61
89.4730000000	48
89.5030000000	41
89.5330000000	50
89.5630000000	54
89.5930000000	59
89.6230000000	53
89.6530000000	52
89.6830000000	49
89.7130000000	39
89.7430000000	45
89.7730000000	47
89.8030000000	46
89.8330000000	44
89.8630000000	38
89.8930000000	46
89.9230000000	44
89.9530000000	48
89.9830000000	42
90.0130000000	34
90.0430000000	37
90.0730000000	38
90.1030000000	41
90.1330000000	25
90.1630000000	54
90.1930000000	40
90.2230000000	47
90.2530000000	30
90.2830000000	46
90.3130000000	44
90.3430000000	52
90.3730000000	50
90.4030000000	36
90.4330000000	47
90.4630000000	42
90.4930000000	47
90.5230000000	46
90.5530000000	49
90.5830000000	36
90.6130000000	46
90.6430000000	29
90.6730000000	31
90.7030000000	34
90.7330000000	40
90.7630000000	33
90.7930000000	34
90.8230000000	39
90.8530000000	37
90.8830000000	45
90.9130000000	38
90.9430000000	46
90.9730000000	41
91.0030000000	39
91.0330000000	36
91.0630000000	44
91.0930000000	39
91.1230000000	36
91.1530000000	34
91.1830000000	38
91.2130000000	32
91.2430000000	37
91.2730000000	37
91.3030000000	28
91.3330000000	35
91.3630000000	38
91.3930000000	33
91.4230000000	33
91.4530000000	36
91.4830000000	35
91.5130000000	36
91.5430000000	31
91.5730000000	30
91.6030000000	29
91.6330000000	32
91.6630000000	34
91.6930000000	34
91.7230000000	44
91.7530000000	37
91.7830000000	40
91.8130000000	32
91.8430000000	47
91.8730000000	38
91.9030000000	29
91.9330000000	37
91.9630000000	32
91.9930000000	26
92.0230000000	42
92.0530000000	29
92.0830000000	47
92.1130000000	47
92.1430000000	33
92.1730000000	38
92.2030000000	48
92.2330000000	27
92.2630000000	37
92.2930000000	40
92.3230000000	34
92.3530000000	32
92.3830000000	40
92.4130000000	26
92.4430000000	32
92.4730000000	38
92.5030000000	43
92.5330000000	31
92.5630000000	30
92.5930000000	43
92.6230000000	32
92.6530000000	35
92.6830000000	36
92.7130000000	38
92.7430000000	41
92.7730000000	42
92.8030000000	31
92.8330000000	30
92.8630000000	36
92.8930000000	33
92.9230000000	38
92.9530000000	32
92.9830000000	37
93.0130000000	39
93.0430000000	38
93.0730000000	35
93.1030000000	33
93.1330000000	43
93.1630000000	40
93.1930000000	37
93.2230000000	38
93.2530000000	36
93.2830000000	38
93.3130000000	35
93.3430000000	39
93.3730000000	38
93.4030000000	34
93.4330000000	39
93.4630000000	53
93.4930000000	35
93.5230000000	41
93.5530000000	35
93.5830000000	39
93.6130000000	44
93.6430000000	42
93.6730000000	47
93.7030000000	44
93.7330000000	44
93.7630000000	36
93.7930000000	39
93.8230000000	37
93.8530000000	36
93.8830000000	30
93.9130000000	43
93.9430000000	39
93.9730000000	39
94.0030000000	35
94.0330000000	33
94.0630000000	31
94.0930000000	51
94.1230000000	35
94.1530000000	38
94.1830000000	45
94.2130000000	45
94.2430000000	39
94.2730000000	33
94.3030000000	39
94.3330000000	43
94.3630000000	36
94.3930000000	30
94.4230000000	29
94.4530000000	31
94.4830000000	37
94.5130000000	37
94.5430000000	37
94.5730000000	34
94.6030000000	30
94.6330000000	40
94.6630000000	39
94.6930000000	34
94.7230000000	46
94.7530000000	45
94.7830000000	23
94.8130000000	35
94.8430000000	32
94.8730000000	45
94.9030000000	33
94.9330000000	30
94.9630000000	30
94.9930000000	40
95.0230000000	43
95.0530000000	37
95.0830000000	36
95.1130000000	35
95.1430000000	46
95.1730000000	42
95.2030000000	29
95.2330000000	26
95.2630000000	42
95.2930000000	49
95.3230000000	37
95.3530000000	42
95.3830000000	44
95.4130000000	44
95.4430000000	40
95.4730000000	24
95.5030000000	40
95.5330000000	36
95.5630000000	44
95.5930000000	39
95.6230000000	42
95.6530000000	39
95.6830000000	28
95.7130000000	45
95.7430000000	36
95.7730000000	35
95.8030000000	37
95.8330000000	40
95.8630000000	43
95.8930000000	38
95.9230000000	35
95.9530000000	33
95.9830000000	34
96.0130000000	30
96.0430000000	30
96.0730000000	35
96.1030000000	37
96.1330000000	43
96.1630000000	45
96.1930000000	39
96.2230000000	42
96.2530000000	51
96.2830000000	48
96.3130000000	32
96.3430000000	36
96.3730000000	43
96.4030000000	38
96.4330000000	39
96.4630000000	48
96.4930000000	36
96.5230000000	36
96.5530000000	39
96.5830000000	42
96.6130000000	32
96.6430000000	32
96.6730000000	24
96.7030000000	40
96.7330000000	43
96.7630000000	37
96.7930000000	40
96.8230000000	30
96.8530000000	37
96.8830000000	33
96.9130000000	39
96.9430000000	39
96.9730000000	44
97.0030000000	52
97.0330000000	42
97.0630000000	52
97.0930000000	44
97.1230000000	39
97.1530000000	30
97.1830000000	32
97.2130000000	35
97.2430000000	37
97.2730000000	36
97.3030000000	46
97.3330000000	37
97.3630000000	29
97.3930000000	35
97.4230000000	44
97.4530000000	46
97.4830000000	30
97.5130000000	31
97.5430000000	39
97.5730000000	50
97.6030000000	46
97.6330000000	31
97.6630000000	37
97.6930000000	41
97.7230000000	39
97.7530000000	47
97.7830000000	34
97.8130000000	33
97.8430000000	42
97.8730000000	44
97.9030000000	27
97.9330000000	34
97.9630000000	34
97.9930000000	30
98.0230000000	37
98.0530000000	32
98.0830000000	22
98.1130000000	37
98.1430000000	32
98.1730000000	33
98.2030000000	40
98.2330000000	32
98.2630000000	36
98.2930000000	34
98.3230000000	44
98.3530000000	39
98.3830000000	38
98.4130000000	39
98.4430000000	34
98.4730000000	38
98.5030000000	33
98.5330000000	29
98.5630000000	40
98.5930000000	35
98.6230000000	41
98.6530000000	46
98.6830000000	43
98.7130000000	34
98.7430000000	29
98.7730000000	39
98.8030000000	42
98.8330000000	36
98.8630000000	42
98.8930000000	42
98.9230000000	28
98.9530000000	33
98.9830000000	29
99.0130000000	35
99.0430000000	35
99.0730000000	38
99.1030000000	34
99.1330000000	34
99.1630000000	37
99.1930000000	42
99.2230000000	40
99.2530000000	40
99.2830000000	38
99.3130000000	31
99.3430000000	30
99.3730000000	40
99.4030000000	37
99.4330000000	32
99.4630000000	40
99.4930000000	38
99.5230000000	40
99.5530000000	44
99.5830000000	39
99.6130000000	43
99.6430000000	40
99.6730000000	36
99.7030000000	35
99.7330000000	35
99.7630000000	33
99.7930000000	30
99.8230000000	39
99.8530000000	31
99.8830000000	26
99.9130000000	34
99.9430000000	41
99.9730000000	45
100.0030000000	37
100.0330000000	34
100.0630000000	44
100.0930000000	36
100.1230000000	35
100.1530000000	36
100.1830000000	40
100.2130000000	42
100.2430000000	23
100.2730000000	32
100.3030000000	32
100.3330000000	34
100.3630000000	40
100.3930000000	40
100.4230000000	27
100.4530000000	47
100.4830000000	33
100.5130000000	48
100.5430000000	36
100.5730000000	29
100.6030000000	30
100.6330000000	30
100.6630000000	31
100.6930000000	36
100.7230000000	23
100.7530000000	31
100.7830000000	34
100.8130000000	29
100.8430000000	32
100.8730000000	30
100.9030000000	34
100.9330000000	47
100.9630000000	38
100.9930000000	36
101.0230000000	37
101.0530000000	38
101.0830000000	36
101.1130000000	28
101.1430000000	44
101.1730000000	33
101.2030000000	31
101.2330000000	40
101.2630000000	50
101.2930000000	43
101.3230000000	38
101.3530000000	30
101.3830000000	34
101.4130000000	36
101.4430000000	30
101.4730000000	32
101.5030000000	42
101.5330000000	42
101.5630000000	39
101.5930000000	39
101.6230000000	37
101.6530000000	31
101.6830000000	27
101.7130000000	33
101.7430000000	39
101.7730000000	48
101.8030000000	52
101.8330000000	23
101.8630000000	30
101.8930000000	34
101.9230000000	40
101.9530000000	36
101.9830000000	35
102.0130000000	31
102.0430000000	34
102.0730000000	33
102.1030000000	40
102.1330000000	39
102.1630000000	40
102.1930000000	28
102.2230000000	34
102.2530000000	35
102.2830000000	36
102.3130000000	42
102.3430000000	44
102.3730000000	37
102.4030000000	25
102.4330000000	32
102.4630000000	30
102.4930000000	39
102.5230000000	43
102.5530000000	31
102.5830000000	39
102.6130000000	37
102.6430000000	28
102.6730000000	41
102.7030000000	36
102.7330000000	41
102.7630000000	36
102.7930000000	29
102.8230000000	28
102.8530000000	39
102.8830000000	37
102.9130000000	28
102.9430000000	36
102.9730000000	42
103.0030000000	37
103.0330000000	43
103.0630000000	45
103.0930000000	43
103.1230000000	34
103.1530000000	32
103.1830000000	30
103.2130000000	36
103.2430000000	35
103.2730000000	29
103.3030000000	38
103.3330000000	43
103.3630000000	31
103.3930000000	39
103.4230000000	36
103.4530000000	37
103.4830000000	38
103.5130000000	41
103.5430000000	43
103.5730000000	38
103.6030000000	40
103.6330000000	33
103.6630000000	46
103.6930000000	34
103.7230000000	25
103.7530000000	35
103.7830000000	35
103.8130000000	39
103.8430000000	35
103.8730000000	44
103.9030000000	41
103.9330000000	43
103.9630000000	36
103.9930000000	44
104.0230000000	45
104.0530000000	34
104.0830000000	41
104.1130000000	37
104.1430000000	48
104.1730000000	36
104.2030000000	41
104.2330000000	38
104.2630000000	33
104.2930000000	40
104.3230000000	38
104.3530000000	25
104.3830000000	32
104.4130000000	38
104.4430000000	42
104.4730000000	47
104.5030000000	43
104.5330000000	44
104.5630000000	38
104.5930000000	39
104.6230000000	29
104.6530000000	32
104.6830000000	41
104.7130000000	39
104.7430000000	45
104.7730000000	37
104.8030000000	38
104.8330000000	42
104.8630000000	42
104.8930000000	36
104.9230000000	34
104.9530000000	42
104.9830000000	44
105.0130000000	39
105.0430000000	40
105.0730000000	36
105.1030000000	41
105.1330000000	44
105.1630000000	35
105.1930000000	34
105.2230000000	34
105.2530000000	31
105.2830000000	53
105.3130000000	41
105.3430000000	27
105.3730000000	34
105.4030000000	35
105.4330000000	42
105.4630000000	44
105.4930000000	36
105.5230000000	34
105.5530000000	33
105.5830000000	39
105.6130000000	46
105.6430000000	35
105.6730000000	37
105.7030000000	42
105.7330000000	42
105.7630000000	30
105.7930000000	40
105.8230000000	43
105.8530000000	48
105.8830000000	41
105.9130000000	32
105.9430000000	34
105.9730000000	27
106.0030000000	36
106.0330000000	36
106.0630000000	35
106.0930000000	32
106.1230000000	44
106.1530000000	42
106.1830000000	32
106.2130000000	21
106.2430000000	39
106.2730000000	37
106.3030000000	36
106.3330000000	42
106.3630000000	35
106.3930000000	33
106.4230000000	37
106.4530000000	38
106.4830000000	42
106.5130000000	41
106.5430000000	47
106.5730000000	43
106.6030000000	38
106.6330000000	46
106.6630000000	53
106.6930000000	41
106.7230000000	45
106.7530000000	44
106.7830000000	59
106.8130000000	46
106.8430000000	42
106.8730000000	33
106.9030000000	54
106.9330000000	51
106.9630000000	48
106.9930000000	41
107.0230000000	48
107.0530000000	38
107.0830000000	41
107.1130000000	47
107.1430000000	33
107.1730000000	48
107.2030000000	35
107.2330000000	40
107.2630000000	30
107.2930000000	38
107.3230000000	30
107.3530000000	46
107.3830000000	43
107.4130000000	33
107.4430000000	34
107.4730000000	33
107.5030000000	31
107.5330000000	36
107.5630000000	48
107.5930000000	51
107.6230000000	42
107.6530000000	39
107.6830000000	41
107.7130000000	39
107.7430000000	39
107.7730000000	46
107.8030000000	45
107.8330000000	38
107.8630000000	42
107.8930000000	46
107.9230000000	39
107.9530000000	44
107.9830000000	58
108.0130000000	43
108.0430000000	31
108.0730000000	35
108.1030000000	41
108.1330000000	35
108.1630000000	37
108.1930000000	36
108.2230000000	38
108.2530000000	39
108.2830000000	39
108.3130000000	31
108.3430000000	30
108.3730000000	36
108.4030000000	36
108.4330000000	30
108.4630000000	25
108.4930000000	32
108.5230000000	28
108.5530000000	23
108.5830000000	34
108.6130000000	34
108.6430000000	37
108.6730000000	30
108.7030000000	33
108.7330000000	35
108.7630000000	38
108.7930000000	39
108.8230000000	32
108.8530000000	39
108.8830000000	50
108.9130000000	45
108.9430000000	34
108.9730000000	42
109.0030000000	25
109.0330000000	34
109.0630000000	38
109.0930000000	34
109.1230000000	40
109.1530000000	44
109.1830000000	48
109.2130000000	48
109.2430000000	39
109.2730000000	38
109.3030000000	35
109.3330000000	31
109.3630000000	27
109.3930000000	36
109.4230000000	46
109.4530000000	32
109.4830000000	35
109.5130000000	32
109.5430000000	40
109.5730000000	44
109.6030000000	38
109.6330000000	42
109.6630000000	35
109.6930000000	45
109.7230000000	48
109.7530000000	38
109.7830000000	44
109.8130000000	44
109.8430000000	32
109.8730000000	45
109.9030000000	39
109.9330000000	44
109.9630000000	46
109.9930000000	45
110.0230000000	36
110.0530000000	42
110.0830000000	32
110.1130000000	32
110.1430000000	29
110.1730000000	45
110.2030000000	42
110.2330000000	38
110.2630000000	45
110.2930000000	47
110.3230000000	40
110.3530000000	36
110.3830000000	43
110.4130000000	36
110.4430000000	43
110.4730000000	30
110.5030000000	41
110.5330000000	42
110.5630000000	40
110.5930000000	49
110.6230000000	47
110.6530000000	49
110.6830000000	39
110.7130000000	35
110.7430000000	37
110.7730000000	41
110.8030000000	35
110.8330000000	43
110.8630000000	43
110.8930000000	49
110.9230000000	40
110.9530000000	32
110.9830000000	43
111.0130000000	45
111.0430000000	44
111.0730000000	50
111.1030000000	42
111.1330000000	40
111.1630000000	50
111.1930000000	49
111.2230000000	42
111.2530000000	42
111.2830000000	44
111.3130000000	40
111.3430000000	34
111.3730000000	31
111.4030000000	56
111.4330000000	47
111.4630000000	40
111.4930000000	31
111.5230000000	48
111.5530000000	43
111.5830000000	42
111.6130000000	42
111.6430000000	41
111.6730000000	33
111.7030000000	46
111.7330000000	56
111.7630000000	40
111.7930000000	34
111.8230000000	39
111.8530000000	31
111.8830000000	40
111.9130000000	36
111.9430000000	42
111.9730000000	43
112.0030000000	37
112.0330000000	39
112.0630000000	37
112.0930000000	39
112.1230000000	37
112.1530000000	35
112.1830000000	28
112.2130000000	40
112.2430000000	42
112.2730000000	35
112.3030000000	48
112.3330000000	40
112.3630000000	34
112.3930000000	37
112.4230000000	36
112.4530000000	43
112.4830000000	40
112.5130000000	44
112.5430000000	44
112.5730000000	41
112.6030000000	35
112.6330000000	34
112.6630000000	41
112.6930000000	35
112.7230000000	35
112.7530000000	32
112.7830000000	30
112.8130000000	48
112.8430000000	39
112.8730000000	31
112.9030000000	35
112.9330000000	57
112.9630000000	60
112.9930000000	67
113.0230000000	74
113.0530000000	66
113.0830000000	68
113.1130000000	60
113.1430000000	60
113.1730000000	61
113.2030000000	55
113.2330000000	54
113.2630000000	45
113.2930000000	43
113.3230000000	47
113.3530000000	47
113.3830000000	52
113.4130000000	53
113.4430000000	47
113.4730000000	48
113.5030000000	51
113.5330000000	38
113.5630000000	44
113.5930000000	38
113.6230000000	43
113.6530000000	49
113.6830000000	46
113.7130000000	43
113.7430000000	39
113.7730000000	37
113.8030000000	47
113.8330000000	50
113.8630000000	41
113.8930000000	39
113.9230000000	50
113.9530000000	41
113.9830000000	37
114.0130000000	46
114.0430000000	48
114.0730000000	42
114.1030000000	47
114.1330000000	41
114.1630000000	46
114.1930000000	37
114.2230000000	42
114.2530000000	38
114.2830000000	36
114.3130000000	48
114.3430000000	42
114.3730000000	54
114.4030000000	38
114.4330000000	26
114.4630000000	1
114.4930000000	1
114.5230000000	1
114.5530000000	1
114.5830000000	1
