0.3130000000	1
0.3430000000	1
0.3730000000	2
0.4030000000	2
0.4330000000	1
0.4630000000	1
0.4930000000	1
0.5230000000	1
0.5530000000	1
0.5830000000	1
0.6130000000	1
0.6430000000	1
0.6730000000	1
0.7030000000	1
0.7330000000	1
0.7630000000	1
0.7930000000	1
0.8230000000	1
0.8530000000	1
0.8830000000	2
0.9130000000	2
0.9430000000	1
0.9730000000	1
1.0030000000	2
1.0330000000	2
1.0630000000	1
1.0930000000	2
1.1230000000	1
1.1530000000	1
1.1830000000	2
1.2130000000	1
1.2430000000	2
1.2730000000	1
1.3030000000	1
1.3330000000	2
1.3630000000	1
1.3930000000	1
1.4230000000	1
1.4530000000	1
1.4830000000	1
1.5130000000	1
1.5430000000	1
1.5730000000	1
1.6030000000	1
1.6330000000	3
1.6630000000	2
1.6930000000	1
1.7230000000	1
1.7530000000	1
1.7830000000	2
1.8130000000	1
1.8430000000	1
1.8730000000	1
1.9030000000	1
1.9330000000	1
1.9630000000	1
1.9930000000	1
2.0230000000	1
2.0530000000	1
2.0830000000	1
2.1130000000	1
2.1430000000	1
2.1730000000	2
2.2030000000	1
2.2330000000	1
2.2630000000	1
2.2930000000	1
2.3230000000	1
2.3530000000	1
2.3830000000	2
2.4130000000	2
2.4430000000	1
2.4730000000	1
2.5030000000	3
2.5330000000	3
2.5630000000	1
2.5930000000	2
2.6230000000	1
2.6530000000	1
2.6830000000	1
2.7130000000	1
2.7430000000	2
2.7730000000	2
2.8030000000	2
2.8330000000	3
2.8630000000	2
2.8930000000	1
2.9230000000	3
2.9530000000	1
2.9830000000	1
3.0130000000	1
3.0430000000	1
3.0730000000	2
3.1030000000	2
3.1330000000	1
3.1630000000	1
3.1930000000	1
3.2230000000	2
3.2530000000	2
3.2830000000	4
3.3130000000	1
3.3430000000	1
3.3730000000	2
3.4030000000	2
3.4330000000	4
3.4630000000	1
3.4930000000	1
3.5230000000	1
3.5530000000	2
3.5830000000	3
3.6130000000	2
3.6430000000	2
3.6730000000	6
3.7030000000	2
3.7330000000	2
3.7630000000	1
3.7930000000	1
3.8230000000	2
3.8530000000	2
3.8830000000	2
3.9130000000	3
3.9430000000	1
3.9730000000	1
4.0030000000	2
4.0330000000	2
4.0630000000	4
4.0930000000	2
4.1230000000	3
4.1530000000	2
4.1830000000	2
4.2130000000	3
4.2430000000	1
4.2730000000	3
4.3030000000	5
4.3330000000	6
4.3630000000	1
4.3930000000	8
4.4230000000	4
4.4530000000	11
4.4830000000	15
4.5130000000	26
4.5430000000	32
4.5730000000	55
4.6030000000	69
4.6330000000	96
4.6630000000	115
4.6930000000	128
4.7230000000	136
4.7530000000	130
4.7830000000	144
4.8130000000	161
4.8430000000	131
4.8730000000	139
4.9030000000	125
4.9330000000	157
4.9630000000	131
4.9930000000	143
5.0230000000	127
5.0530000000	141
5.0830000000	160
5.1130000000	112
5.1430000000	124
5.1730000000	137
5.2030000000	134
5.2330000000	131
5.2630000000	145
5.2930000000	148
5.3230000000	153
5.3530000000	153
5.3830000000	116
5.4130000000	155
5.4430000000	147
5.4730000000	148
5.5030000000	130
5.5330000000	137
5.5630000000	165
5.5930000000	147
5.6230000000	128
5.6530000000	150
5.6830000000	167
5.7130000000	150
5.7430000000	145
5.7730000000	147
5.8030000000	159
5.8330000000	161
5.8630000000	169
5.8930000000	160
5.9230000000	156
5.9530000000	142
5.9830000000	135
6.0130000000	138
6.0430000000	161
6.0730000000	127
6.1030000000	123
6.1330000000	160
6.1630000000	158
6.1930000000	172
6.2230000000	157
6.2530000000	164
6.2830000000	163
6.3130000000	151
6.3430000000	157
6.3730000000	165
6.4030000000	135
6.4330000000	136
6.4630000000	146
6.4930000000	140
6.5230000000	163
6.5530000000	142
6.5830000000	160
6.6130000000	146
6.6430000000	165
6.6730000000	145
6.7030000000	156
6.7330000000	148
6.7630000000	127
6.7930000000	139
6.8230000000	142
6.8530000000	152
6.8830000000	156
6.9130000000	165
6.9430000000	146
6.9730000000	143
7.0030000000	139
7.0330000000	134
7.0630000000	146
7.0930000000	155
7.1230000000	147
7.1530000000	144
7.1830000000	156
7.2130000000	150
7.2430000000	123
7.2730000000	139
7.3030000000	156
7.3330000000	153
7.3630000000	145
7.3930000000	131
7.4230000000	138
7.4530000000	159
7.4830000000	142
7.5130000000	140
7.5430000000	133
7.5730000000	131
7.6030000000	141
7.6330000000	145
7.6630000000	152
7.6930000000	135
7.7230000000	139
7.7530000000	163
7.7830000000	156
7.8130000000	151
7.8430000000	138
7.8730000000	133
7.9030000000	134
7.9330000000	149
7.9630000000	148
7.9930000000	120
8.0230000000	154
8.0530000000	160
8.0830000000	141
8.1130000000	139
8.1430000000	130
8.1730000000	148
8.2030000000	144
8.2330000000	142
8.2630000000	149
8.2930000000	146
8.3230000000	148
8.3530000000	150
8.3830000000	147
8.4130000000	132
8.4430000000	121
8.4730000000	146
8.5030000000	140
8.5330000000	165
8.5630000000	152
8.5930000000	138
8.6230000000	147
8.6530000000	142
8.6830000000	153
8.7130000000	137
8.7430000000	129
8.7730000000	154
8.8030000000	125
8.8330000000	131
8.8630000000	164
8.8930000000	140
8.9230000000	138
8.9530000000	146
8.9830000000	146
9.0130000000	141
9.0430000000	159
9.0730000000	154
9.1030000000	148
9.1330000000	144
9.1630000000	132
9.1930000000	175
9.2230000000	158
9.2530000000	154
9.2830000000	142
9.3130000000	140
9.3430000000	141
9.3730000000	144
9.4030000000	135
9.4330000000	131
9.4630000000	139
9.4930000000	142
9.5230000000	147
9.5530000000	155
9.5830000000	145
9.6130000000	129
9.6430000000	139
9.6730000000	157
9.7030000000	139
9.7330000000	132
9.7630000000	137
9.7930000000	138
9.8230000000	133
9.8530000000	131
9.8830000000	158
9.9130000000	135
9.9430000000	139
9.9730000000	146
10.0030000000	151
10.0330000000	128
10.0630000000	155
10.0930000000	144
10.1230000000	133
10.1530000000	155
10.1830000000	123
10.2130000000	150
10.2430000000	146
10.2730000000	148
10.3030000000	150
10.3330000000	162
10.3630000000	148
10.3930000000	153
10.4230000000	128
10.4530000000	105
10.4830000000	150
10.5130000000	154
10.5430000000	165
10.5730000000	149
10.6030000000	151
10.6330000000	146
10.6630000000	153
10.6930000000	135
10.7230000000	159
10.7530000000	118
10.7830000000	175
10.8130000000	133
10.8430000000	139
10.8730000000	157
10.9030000000	128
10.9330000000	150
10.9630000000	134
10.9930000000	161
11.0230000000	163
11.0530000000	159
11.0830000000	161
11.1130000000	176
11.1430000000	145
11.1730000000	129
11.2030000000	148
11.2330000000	143
11.2630000000	134
11.2930000000	157
11.3230000000	154
11.3530000000	135
11.3830000000	138
11.4130000000	141
11.4430000000	179
11.4730000000	144
11.5030000000	124
11.5330000000	159
11.5630000000	156
11.5930000000	165
11.6230000000	145
11.6530000000	155
11.6830000000	143
11.7130000000	150
11.7430000000	141
11.7730000000	162
11.8030000000	152
11.8330000000	163
11.8630000000	134
11.8930000000	138
11.9230000000	143
11.9530000000	165
11.9830000000	143
12.0130000000	139
12.0430000000	159
12.0730000000	161
12.1030000000	146
12.1330000000	154
12.1630000000	159
12.1930000000	145
12.2230000000	147
12.2530000000	145
12.2830000000	133
12.3130000000	134
12.3430000000	131
12.3730000000	130
12.4030000000	140
12.4330000000	150
12.4630000000	123
12.4930000000	138
12.5230000000	145
12.5530000000	142
12.5830000000	146
12.6130000000	151
12.6430000000	146
12.6730000000	162
12.7030000000	165
12.7330000000	161
12.7630000000	146
12.7930000000	160
12.8230000000	166
12.8530000000	147
12.8830000000	143
12.9130000000	139
12.9430000000	142
12.9730000000	146
13.0030000000	158
13.0330000000	161
13.0630000000	137
13.0930000000	123
13.1230000000	123
13.1530000000	131
13.1830000000	131
13.2130000000	140
13.2430000000	149
13.2730000000	166
13.3030000000	158
13.3330000000	144
13.3630000000	163
13.3930000000	156
13.4230000000	160
13.4530000000	167
13.4830000000	140
13.5130000000	138
13.5430000000	131
13.5730000000	162
13.6030000000	146
13.6330000000	137
13.6630000000	144
13.6930000000	143
13.7230000000	128
13.7530000000	149
13.7830000000	139
13.8130000000	137
13.8430000000	147
13.8730000000	166
13.9030000000	169
13.9330000000	130
13.9630000000	135
13.9930000000	138
14.0230000000	144
14.0530000000	165
14.0830000000	154
14.1130000000	160
14.1430000000	153
14.1730000000	158
14.2030000000	144
14.2330000000	148
14.2630000000	138
14.2930000000	140
14.3230000000	147
14.3530000000	129
14.3830000000	147
14.4130000000	137
14.4430000000	143
14.4730000000	153
14.5030000000	133
14.5330000000	162
14.5630000000	156
14.5930000000	140
14.6230000000	153
14.6530000000	133
14.6830000000	143
14.7130000000	144
14.7430000000	135
14.7730000000	170
14.8030000000	153
14.8330000000	158
14.8630000000	164
14.8930000000	138
14.9230000000	135
14.9530000000	158
14.9830000000	161
15.0130000000	139
15.0430000000	163
15.0730000000	133
15.1030000000	143
15.1330000000	159
15.1630000000	165
15.1930000000	155
15.2230000000	156
15.2530000000	136
15.2830000000	163
15.3130000000	164
15.3430000000	137
15.3730000000	149
15.4030000000	149
15.4330000000	144
15.4630000000	167
15.4930000000	141
15.5230000000	139
15.5530000000	138
15.5830000000	147
15.6130000000	147
15.6430000000	158
15.6730000000	161
15.7030000000	142
15.7330000000	123
15.7630000000	143
15.7930000000	141
15.8230000000	148
15.8530000000	154
15.8830000000	163
15.9130000000	144
15.9430000000	147
15.9730000000	128
16.0030000000	157
16.0330000000	107
16.0630000000	124
16.0930000000	122
16.1230000000	141
16.1530000000	134
16.1830000000	139
16.2130000000	143
16.2430000000	142
16.2730000000	163
16.3030000000	152
16.3330000000	137
16.3630000000	146
16.3930000000	151
16.4230000000	152
16.4530000000	114
16.4830000000	136
16.5130000000	152
16.5430000000	139
16.5730000000	132
16.6030000000	125
16.6330000000	133
16.6630000000	130
16.6930000000	153
16.7230000000	149
16.7530000000	158
16.7830000000	139
16.8130000000	148
16.8430000000	156
16.8730000000	147
16.9030000000	137
16.9330000000	128
16.9630000000	161
16.9930000000	139
17.0230000000	142
17.0530000000	153
17.0830000000	149
17.1130000000	154
17.1430000000	167
17.1730000000	150
17.2030000000	157
17.2330000000	159
17.2630000000	148
17.2930000000	153
17.3230000000	143
17.3530000000	145
17.3830000000	137
17.4130000000	140
17.4430000000	152
17.4730000000	156
17.5030000000	137
17.5330000000	143
17.5630000000	155
17.5930000000	150
17.6230000000	137
17.6530000000	134
17.6830000000	138
17.7130000000	135
17.7430000000	137
17.7730000000	132
17.8030000000	126
17.8330000000	144
17.8630000000	147
17.8930000000	127
17.9230000000	135
17.9530000000	151
17.9830000000	154
18.0130000000	143
18.0430000000	130
18.0730000000	153
18.1030000000	165
18.1330000000	151
18.1630000000	153
18.1930000000	142
18.2230000000	131
18.2530000000	151
18.2830000000	147
18.3130000000	155
18.3430000000	148
18.3730000000	143
18.4030000000	151
18.4330000000	152
18.4630000000	154
18.4930000000	142
18.5230000000	141
18.5530000000	146
18.5830000000	158
18.6130000000	156
18.6430000000	150
18.6730000000	124
18.7030000000	144
18.7330000000	120
18.7630000000	156
18.7930000000	167
18.8230000000	137
18.8530000000	145
18.8830000000	151
18.9130000000	147
18.9430000000	153
18.9730000000	156
19.0030000000	140
19.0330000000	146
19.0630000000	138
19.0930000000	151
19.1230000000	154
19.1530000000	179
19.1830000000	166
19.2130000000	154
19.2430000000	182
19.2730000000	152
19.3030000000	168
19.3330000000	151
19.3630000000	170
19.3930000000	204
19.4230000000	193
19.4530000000	190
19.4830000000	230
19.5130000000	285
19.5430000000	317
19.5730000000	409
19.6030000000	407
19.6330000000	357
19.6630000000	329
19.6930000000	262
19.7230000000	205
19.7530000000	188
19.7830000000	157
19.8130000000	165
19.8430000000	162
19.8730000000	150
19.9030000000	164
19.9330000000	173
19.9630000000	147
19.9930000000	145
20.0230000000	153
20.0530000000	152
20.0830000000	162
20.1130000000	149
20.1430000000	154
20.1730000000	151
20.2030000000	166
20.2330000000	155
20.2630000000	161
20.2930000000	138
20.3230000000	130
20.3530000000	142
20.3830000000	149
20.4130000000	133
20.4430000000	146
20.4730000000	164
20.5030000000	159
20.5330000000	129
20.5630000000	144
20.5930000000	130
20.6230000000	151
20.6530000000	160
20.6830000000	167
20.7130000000	141
20.7430000000	146
20.7730000000	146
20.8030000000	166
20.8330000000	151
20.8630000000	166
20.8930000000	167
20.9230000000	146
20.9530000000	157
20.9830000000	156
21.0130000000	147
21.0430000000	162
21.0730000000	163
21.1030000000	152
21.1330000000	169
21.1630000000	150
21.1930000000	151
21.2230000000	133
21.2530000000	158
21.2830000000	158
21.3130000000	149
21.3430000000	155
21.3730000000	153
21.4030000000	163
21.4330000000	162
21.4630000000	156
21.4930000000	159
21.5230000000	157
21.5530000000	167
21.5830000000	143
21.6130000000	157
21.6430000000	153
21.6730000000	153
21.7030000000	161
21.7330000000	172
21.7630000000	135
21.7930000000	157
21.8230000000	168
21.8530000000	148
21.8830000000	158
21.9130000000	165
21.9430000000	159
21.9730000000	154
22.0030000000	147
22.0330000000	157
22.0630000000	170
22.0930000000	166
22.1230000000	154
22.1530000000	147
22.1830000000	165
22.2130000000	167
22.2430000000	164
22.2730000000	170
22.3030000000	169
22.3330000000	144
22.3630000000	170
22.3930000000	169
22.4230000000	157
22.4530000000	178
22.4830000000	185
22.5130000000	171
22.5430000000	173
22.5730000000	179
22.6030000000	179
22.6330000000	175
22.6630000000	189
22.6930000000	224
22.7230000000	215
22.7530000000	233
22.7830000000	240
22.8130000000	202
22.8430000000	204
22.8730000000	196
22.9030000000	171
22.9330000000	162
22.9630000000	180
22.9930000000	180
23.0230000000	176
23.0530000000	162
23.0830000000	154
23.1130000000	171
23.1430000000	178
23.1730000000	145
23.2030000000	144
23.2330000000	181
23.2630000000	194
23.2930000000	159
23.3230000000	194
23.3530000000	171
23.3830000000	147
23.4130000000	173
23.4430000000	176
23.4730000000	188
23.5030000000	167
23.5330000000	180
23.5630000000	145
23.5930000000	165
23.6230000000	149
23.6530000000	161
23.6830000000	150
23.7130000000	163
23.7430000000	174
23.7730000000	147
23.8030000000	159
23.8330000000	152
23.8630000000	175
23.8930000000	175
23.9230000000	142
23.9530000000	171
23.9830000000	156
24.0130000000	144
24.0430000000	165
24.0730000000	137
24.1030000000	152
24.1330000000	141
24.1630000000	157
24.1930000000	164
24.2230000000	179
24.2530000000	171
24.2830000000	167
24.3130000000	178
24.3430000000	161
24.3730000000	195
24.4030000000	177
24.4330000000	176
24.4630000000	155
24.4930000000	188
24.5230000000	145
24.5530000000	180
24.5830000000	184
24.6130000000	151
24.6430000000	167
24.6730000000	167
24.7030000000	170
24.7330000000	169
24.7630000000	163
24.7930000000	164
24.8230000000	161
24.8530000000	165
24.8830000000	150
24.9130000000	171
24.9430000000	158
24.9730000000	176
25.0030000000	168
25.0330000000	173
25.0630000000	137
25.0930000000	172
25.1230000000	179
25.1530000000	168
25.1830000000	190
25.2130000000	158
25.2430000000	161
25.2730000000	153
25.3030000000	179
25.3330000000	170
25.3630000000	164
25.3930000000	175
25.4230000000	162
25.4530000000	141
25.4830000000	171
25.5130000000	168
25.5430000000	163
25.5730000000	179
25.6030000000	154
25.6330000000	163
25.6630000000	159
25.6930000000	203
25.7230000000	183
25.7530000000	156
25.7830000000	167
25.8130000000	187
25.8430000000	167
25.8730000000	189
25.9030000000	163
25.9330000000	161
25.9630000000	172
25.9930000000	158
26.0230000000	146
26.0530000000	180
26.0830000000	169
26.1130000000	185
26.1430000000	197
26.1730000000	201
26.2030000000	201
26.2330000000	207
26.2630000000	249
26.2930000000	288
26.3230000000	398
26.3530000000	476
26.3830000000	617
26.4130000000	862
26.4430000000	1033
26.4730000000	1033
26.5030000000	805
26.5330000000	566
26.5630000000	470
26.5930000000	332
26.6230000000	266
26.6530000000	216
26.6830000000	200
26.7130000000	184
26.7430000000	177
26.7730000000	180
26.8030000000	175
26.8330000000	171
26.8630000000	169
26.8930000000	165
26.9230000000	163
26.9530000000	145
26.9830000000	152
27.0130000000	157
27.0430000000	158
27.0730000000	155
27.1030000000	138
27.1330000000	144
27.1630000000	157
27.1930000000	152
27.2230000000	116
27.2530000000	143
27.2830000000	139
27.3130000000	152
27.3430000000	154
27.3730000000	170
27.4030000000	166
27.4330000000	151
27.4630000000	129
27.4930000000	141
27.5230000000	155
27.5530000000	167
27.5830000000	150
27.6130000000	136
27.6430000000	155
27.6730000000	158
27.7030000000	159
27.7330000000	152
27.7630000000	159
27.7930000000	134
27.8230000000	135
27.8530000000	146
27.8830000000	160
27.9130000000	158
27.9430000000	147
27.9730000000	130
28.0030000000	159
28.0330000000	140
28.0630000000	143
28.0930000000	127
28.1230000000	129
28.1530000000	164
28.1830000000	136
28.2130000000	153
28.2430000000	149
28.2730000000	152
28.3030000000	145
28.3330000000	167
28.3630000000	151
28.3930000000	167
28.4230000000	130
28.4530000000	149
28.4830000000	152
28.5130000000	157
28.5430000000	155
28.5730000000	141
28.6030000000	142
28.6330000000	146
28.6630000000	144
28.6930000000	147
28.7230000000	152
28.7530000000	138
28.7830000000	162
28.8130000000	156
28.8430000000	141
28.8730000000	153
28.9030000000	135
28.9330000000	145
28.9630000000	152
28.9930000000	142
29.0230000000	161
29.0530000000	141
29.0830000000	152
29.1130000000	127
29.1430000000	149
29.1730000000	139
29.2030000000	170
29.2330000000	147
29.2630000000	133
29.2930000000	154
29.3230000000	145
29.3530000000	150
29.3830000000	137
29.4130000000	142
29.4430000000	112
29.4730000000	135
29.5030000000	136
29.5330000000	128
29.5630000000	131
29.5930000000	150
29.6230000000	130
29.6530000000	141
29.6830000000	154
29.7130000000	139
29.7430000000	128
29.7730000000	113
29.8030000000	128
29.8330000000	136
29.8630000000	132
29.8930000000	140
29.9230000000	151
29.9530000000	115
29.9830000000	143
30.0130000000	167
30.0430000000	148
30.0730000000	146
30.1030000000	128
30.1330000000	145
30.1630000000	160
30.1930000000	161
30.2230000000	165
30.2530000000	241
30.2830000000	336
30.3130000000	442
30.3430000000	625
30.3730000000	977
30.4030000000	1420
30.4330000000	2044
30.4630000000	2706
30.4930000000	2907
30.5230000000	2579
30.5530000000	1833
30.5830000000	1203
30.6130000000	788
30.6430000000	526
30.6730000000	329
30.7030000000	248
30.7330000000	215
30.7630000000	198
30.7930000000	141
30.8230000000	169
30.8530000000	171
30.8830000000	148
30.9130000000	135
30.9430000000	153
30.9730000000	138
31.0030000000	132
31.0330000000	139
31.0630000000	119
31.0930000000	129
31.1230000000	123
31.1530000000	130
31.1830000000	150
31.2130000000	133
31.2430000000	148
31.2730000000	115
31.3030000000	134
31.3330000000	136
31.3630000000	157
31.3930000000	141
31.4230000000	142
31.4530000000	118
31.4830000000	133
31.5130000000	130
31.5430000000	132
31.5730000000	132
31.6030000000	171
31.6330000000	161
31.6630000000	182
31.6930000000	235
31.7230000000	243
31.7530000000	354
31.7830000000	462
31.8130000000	654
31.8430000000	977
31.8730000000	1402
31.9030000000	1659
31.9330000000	1602
31.9630000000	1338
31.9930000000	1148
32.0230000000	890
32.0530000000	694
32.0830000000	646
32.1130000000	798
32.1430000000	936
32.1730000000	1084
32.2030000000	1173
32.2330000000	1051
32.2630000000	866
32.2930000000	644
32.3230000000	461
32.3530000000	317
32.3830000000	210
32.4130000000	163
32.4430000000	166
32.4730000000	156
32.5030000000	141
32.5330000000	131
32.5630000000	133
32.5930000000	124
32.6230000000	116
32.6530000000	108
32.6830000000	98
32.7130000000	118
32.7430000000	121
32.7730000000	128
32.8030000000	109
32.8330000000	110
32.8630000000	114
32.8930000000	117
32.9230000000	92
32.9530000000	109
32.9830000000	121
33.0130000000	109
33.0430000000	107
33.0730000000	99
33.1030000000	107
33.1330000000	118
33.1630000000	130
33.1930000000	100
33.2230000000	108
33.2530000000	131
33.2830000000	141
33.3130000000	127
33.3430000000	114
33.3730000000	134
33.4030000000	142
33.4330000000	130
33.4630000000	122
33.4930000000	104
33.5230000000	101
33.5530000000	107
33.5830000000	100
33.6130000000	116
33.6430000000	120
33.6730000000	110
33.7030000000	93
33.7330000000	103
33.7630000000	101
33.7930000000	107
33.8230000000	107
33.8530000000	119
33.8830000000	98
33.9130000000	90
33.9430000000	87
33.9730000000	86
34.0030000000	98
34.0330000000	106
34.0630000000	96
34.0930000000	85
34.1230000000	75
34.1530000000	98
34.1830000000	104
34.2130000000	101
34.2430000000	88
34.2730000000	91
34.3030000000	88
34.3330000000	95
34.3630000000	92
34.3930000000	94
34.4230000000	97
34.4530000000	96
34.4830000000	103
34.5130000000	104
34.5430000000	104
34.5730000000	105
34.6030000000	110
34.6330000000	108
34.6630000000	88
34.6930000000	95
34.7230000000	102
34.7530000000	89
34.7830000000	91
34.8130000000	96
34.8430000000	107
34.8730000000	102
34.9030000000	101
34.9330000000	88
34.9630000000	97
34.9930000000	89
35.0230000000	98
35.0530000000	105
35.0830000000	92
35.1130000000	98
35.1430000000	94
35.1730000000	95
35.2030000000	118
35.2330000000	117
35.2630000000	121
35.2930000000	158
35.3230000000	178
35.3530000000	221
35.3830000000	271
35.4130000000	280
35.4430000000	240
35.4730000000	234
35.5030000000	209
35.5330000000	182
35.5630000000	132
35.5930000000	143
35.6230000000	105
35.6530000000	117
35.6830000000	122
35.7130000000	111
35.7430000000	104
35.7730000000	94
35.8030000000	87
35.8330000000	94
35.8630000000	104
35.8930000000	101
35.9230000000	85
35.9530000000	89
35.9830000000	87
36.0130000000	82
36.0430000000	91
36.0730000000	86
36.1030000000	102
36.1330000000	91
36.1630000000	84
36.1930000000	87
36.2230000000	84
36.2530000000	69
36.2830000000	90
36.3130000000	101
36.3430000000	100
36.3730000000	108
36.4030000000	117
36.4330000000	99
36.4630000000	99
36.4930000000	133
36.5230000000	136
36.5530000000	175
36.5830000000	258
36.6130000000	307
36.6430000000	399
36.6730000000	431
36.7030000000	472
36.7330000000	412
36.7630000000	342
36.7930000000	238
36.8230000000	197
36.8530000000	157
36.8830000000	123
36.9130000000	108
36.9430000000	102
36.9730000000	77
37.0030000000	98
37.0330000000	87
37.0630000000	83
37.0930000000	93
37.1230000000	97
37.1530000000	92
37.1830000000	72
37.2130000000	81
37.2430000000	102
37.2730000000	97
37.3030000000	85
37.3330000000	77
37.3630000000	73
37.3930000000	90
37.4230000000	100
37.4530000000	83
37.4830000000	75
37.5130000000	90
37.5430000000	98
37.5730000000	79
37.6030000000	87
37.6330000000	92
37.6630000000	69
37.6930000000	78
37.7230000000	90
37.7530000000	92
37.7830000000	92
37.8130000000	82
37.8430000000	86
37.8730000000	95
37.9030000000	96
37.9330000000	80
37.9630000000	85
37.9930000000	81
38.0230000000	88
38.0530000000	87
38.0830000000	79
38.1130000000	83
38.1430000000	93
38.1730000000	81
38.2030000000	89
38.2330000000	92
38.2630000000	81
38.2930000000	101
38.3230000000	95
38.3530000000	92
38.3830000000	97
38.4130000000	77
38.4430000000	87
38.4730000000	100
38.5030000000	82
38.5330000000	79
38.5630000000	83
38.5930000000	92
38.6230000000	79
38.6530000000	86
38.6830000000	90
38.7130000000	87
38.7430000000	91
38.7730000000	81
38.8030000000	83
38.8330000000	90
38.8630000000	88
38.8930000000	90
38.9230000000	87
38.9530000000	88
38.9830000000	91
39.0130000000	83
39.0430000000	93
39.0730000000	93
39.1030000000	89
39.1330000000	81
39.1630000000	88
39.1930000000	110
39.2230000000	90
39.2530000000	93
39.2830000000	95
39.3130000000	90
39.3430000000	83
39.3730000000	80
39.4030000000	96
39.4330000000	104
39.4630000000	98
39.4930000000	105
39.5230000000	131
39.5530000000	124
39.5830000000	142
39.6130000000	198
39.6430000000	239
39.6730000000	322
39.7030000000	501
39.7330000000	745
39.7630000000	989
39.7930000000	1318
39.8230000000	1281
39.8530000000	1094
39.8830000000	882
39.9130000000	653
39.9430000000	471
39.9730000000	310
40.0030000000	206
40.0330000000	157
40.0630000000	118
40.0930000000	121
40.1230000000	94
40.1530000000	80
40.1830000000	97
40.2130000000	80
40.2430000000	78
40.2730000000	101
40.3030000000	91
40.3330000000	85
40.3630000000	67
40.3930000000	79
40.4230000000	85
40.4530000000	82
40.4830000000	73
40.5130000000	95
40.5430000000	104
40.5730000000	72
40.6030000000	85
40.6330000000	102
40.6630000000	90
40.6930000000	69
40.7230000000	75
40.7530000000	93
40.7830000000	80
40.8130000000	73
40.8430000000	91
40.8730000000	81
40.9030000000	74
40.9330000000	79
40.9630000000	82
40.9930000000	74
41.0230000000	89
41.0530000000	87
41.0830000000	98
41.1130000000	87
41.1430000000	87
41.1730000000	95
41.2030000000	84
41.2330000000	87
41.2630000000	93
41.2930000000	88
41.3230000000	74
41.3530000000	88
41.3830000000	79
41.4130000000	79
41.4430000000	79
41.4730000000	83
41.5030000000	80
41.5330000000	73
41.5630000000	104
41.5930000000	80
41.6230000000	89
41.6530000000	81
41.6830000000	79
41.7130000000	88
41.7430000000	76
41.7730000000	79
41.8030000000	80
41.8330000000	84
41.8630000000	76
41.8930000000	79
41.9230000000	82
41.9530000000	81
41.9830000000	77
42.0130000000	73
42.0430000000	66
42.0730000000	74
42.1030000000	90
42.1330000000	83
42.1630000000	65
42.1930000000	76
42.2230000000	95
42.2530000000	81
42.2830000000	87
42.3130000000	84
42.3430000000	72
42.3730000000	74
42.4030000000	75
42.4330000000	70
42.4630000000	87
42.4930000000	92
42.5230000000	77
42.5530000000	81
42.5830000000	71
42.6130000000	75
42.6430000000	90
42.6730000000	74
42.7030000000	74
42.7330000000	94
42.7630000000	88
42.7930000000	79
42.8230000000	93
42.8530000000	84
42.8830000000	64
42.9130000000	94
42.9430000000	100
42.9730000000	95
43.0030000000	109
43.0330000000	119
43.0630000000	141
43.0930000000	177
43.1230000000	237
43.1530000000	306
43.1830000000	432
43.2130000000	607
43.2430000000	938
43.2730000000	1250
43.3030000000	1295
43.3330000000	1221
43.3630000000	1183
43.3930000000	902
43.4230000000	632
43.4530000000	392
43.4830000000	313
43.5130000000	209
43.5430000000	144
43.5730000000	134
43.6030000000	114
43.6330000000	121
43.6630000000	99
43.6930000000	95
43.7230000000	103
43.7530000000	135
43.7830000000	134
43.8130000000	108
43.8430000000	111
43.8730000000	109
43.9030000000	111
43.9330000000	105
43.9630000000	79
43.9930000000	79
44.0230000000	87
44.0530000000	84
44.0830000000	72
44.1130000000	79
44.1430000000	74
44.1730000000	75
44.2030000000	86
44.2330000000	75
44.2630000000	82
44.2930000000	66
44.3230000000	70
44.3530000000	58
44.3830000000	71
44.4130000000	68
44.4430000000	58
44.4730000000	80
44.5030000000	86
44.5330000000	63
44.5630000000	70
44.5930000000	72
44.6230000000	67
44.6530000000	71
44.6830000000	82
44.7130000000	60
44.7430000000	66
44.7730000000	82
44.8030000000	84
44.8330000000	85
44.8630000000	107
44.8930000000	108
44.9230000000	136
44.9530000000	145
44.9830000000	209
45.0130000000	232
45.0430000000	324
45.0730000000	482
45.1030000000	646
45.1330000000	801
45.1630000000	831
45.1930000000	738
45.2230000000	679
45.2530000000	556
45.2830000000	393
45.3130000000	265
45.3430000000	183
45.3730000000	130
45.4030000000	110
45.4330000000	103
45.4630000000	93
45.4930000000	68
45.5230000000	69
45.5530000000	82
45.5830000000	69
45.6130000000	66
45.6430000000	82
45.6730000000	72
45.7030000000	73
45.7330000000	81
45.7630000000	72
45.7930000000	79
45.8230000000	75
45.8530000000	68
45.8830000000	65
45.9130000000	65
45.9430000000	80
45.9730000000	91
46.0030000000	105
46.0330000000	118
46.0630000000	168
46.0930000000	186
46.1230000000	186
46.1530000000	186
46.1830000000	170
46.2130000000	171
46.2430000000	155
46.2730000000	115
46.3030000000	101
46.3330000000	82
46.3630000000	93
46.3930000000	82
46.4230000000	78
46.4530000000	107
46.4830000000	116
46.5130000000	116
46.5430000000	99
46.5730000000	101
46.6030000000	112
46.6330000000	93
46.6630000000	96
46.6930000000	89
46.7230000000	81
46.7530000000	81
46.7830000000	84
46.8130000000	70
46.8430000000	73
46.8730000000	68
46.9030000000	101
46.9330000000	99
46.9630000000	117
46.9930000000	161
47.0230000000	203
47.0530000000	264
47.0830000000	276
47.1130000000	258
47.1430000000	222
47.1730000000	205
47.2030000000	150
47.2330000000	124
47.2630000000	100
47.2930000000	85
47.3230000000	74
47.3530000000	70
47.3830000000	53
47.4130000000	69
47.4430000000	59
47.4730000000	61
47.5030000000	55
47.5330000000	96
47.5630000000	78
47.5930000000	88
47.6230000000	106
47.6530000000	93
47.6830000000	89
47.7130000000	85
47.7430000000	64
47.7730000000	95
47.8030000000	61
47.8330000000	77
47.8630000000	61
47.8930000000	60
47.9230000000	52
47.9530000000	55
47.9830000000	65
48.0130000000	56
48.0430000000	61
48.0730000000	61
48.1030000000	56
48.1330000000	63
48.1630000000	47
48.1930000000	47
48.2230000000	58
48.2530000000	53
48.2830000000	53
48.3130000000	52
48.3430000000	55
48.3730000000	57
48.4030000000	56
48.4330000000	65
48.4630000000	62
48.4930000000	68
48.5230000000	66
48.5530000000	68
48.5830000000	70
48.6130000000	54
48.6430000000	50
48.6730000000	56
48.7030000000	61
48.7330000000	58
48.7630000000	51
48.7930000000	51
48.8230000000	46
48.8530000000	57
48.8830000000	59
48.9130000000	57
48.9430000000	52
48.9730000000	54
49.0030000000	68
49.0330000000	62
49.0630000000	43
49.0930000000	45
49.1230000000	48
49.1530000000	50
49.1830000000	60
49.2130000000	58
49.2430000000	58
49.2730000000	59
49.3030000000	55
49.3330000000	50
49.3630000000	60
49.3930000000	47
49.4230000000	45
49.4530000000	56
49.4830000000	69
49.5130000000	54
49.5430000000	43
49.5730000000	58
49.6030000000	59
49.6330000000	65
49.6630000000	65
49.6930000000	45
49.7230000000	50
49.7530000000	41
49.7830000000	49
49.8130000000	75
49.8430000000	39
49.8730000000	55
49.9030000000	54
49.9330000000	49
49.9630000000	53
49.9930000000	67
50.0230000000	56
50.0530000000	38
50.0830000000	48
50.1130000000	53
50.1430000000	46
50.1730000000	46
50.2030000000	52
50.2330000000	62
50.2630000000	45
50.2930000000	55
50.3230000000	63
50.3530000000	49
50.3830000000	68
50.4130000000	51
50.4430000000	44
50.4730000000	60
50.5030000000	81
50.5330000000	77
50.5630000000	73
50.5930000000	87
50.6230000000	101
50.6530000000	85
50.6830000000	86
50.7130000000	83
50.7430000000	84
50.7730000000	66
50.8030000000	67
50.8330000000	59
50.8630000000	59
50.8930000000	56
50.9230000000	45
50.9530000000	64
50.9830000000	61
51.0130000000	49
51.0430000000	40
51.0730000000	47
51.1030000000	52
51.1330000000	53
51.1630000000	50
51.1930000000	45
51.2230000000	50
51.2530000000	43
51.2830000000	53
51.3130000000	43
51.3430000000	49
51.3730000000	55
51.4030000000	66
51.4330000000	57
51.4630000000	41
51.4930000000	52
51.5230000000	65
51.5530000000	51
51.5830000000	42
51.6130000000	56
51.6430000000	48
51.6730000000	48
51.7030000000	50
51.7330000000	54
51.7630000000	39
51.7930000000	51
51.8230000000	56
51.8530000000	50
51.8830000000	43
51.9130000000	41
51.9430000000	52
51.9730000000	61
52.0030000000	42
52.0330000000	45
52.0630000000	49
52.0930000000	58
52.1230000000	59
52.1530000000	83
52.1830000000	80
52.2130000000	76
52.2430000000	83
52.2730000000	73
52.3030000000	89
52.3330000000	61
52.3630000000	66
52.3930000000	73
52.4230000000	54
52.4530000000	45
52.4830000000	50
52.5130000000	51
52.5430000000	56
52.5730000000	44
52.6030000000	53
52.6330000000	56
52.6630000000	52
52.6930000000	43
52.7230000000	56
52.7530000000	50
52.7830000000	50
52.8130000000	49
52.8430000000	40
52.8730000000	53
52.9030000000	55
52.9330000000	49
52.9630000000	59
52.9930000000	43
53.0230000000	44
53.0530000000	49
53.0830000000	60
53.1130000000	44
53.1430000000	39
53.1730000000	54
53.2030000000	41
53.2330000000	44
53.2630000000	50
53.2930000000	56
53.3230000000	50
53.3530000000	49
53.3830000000	42
53.4130000000	35
53.4430000000	41
53.4730000000	53
53.5030000000	59
53.5330000000	43
53.5630000000	54
53.5930000000	58
53.6230000000	54
53.6530000000	52
53.6830000000	49
53.7130000000	54
53.7430000000	59
53.7730000000	54
53.8030000000	58
53.8330000000	60
53.8630000000	64
53.8930000000	86
53.9230000000	82
53.9530000000	111
53.9830000000	117
54.0130000000	113
54.0430000000	122
54.0730000000	101
54.1030000000	90
54.1330000000	91
54.1630000000	78
54.1930000000	70
54.2230000000	58
54.2530000000	55
54.2830000000	49
54.3130000000	67
54.3430000000	51
54.3730000000	53
54.4030000000	49
54.4330000000	63
54.4630000000	55
54.4930000000	55
54.5230000000	56
54.5530000000	58
54.5830000000	43
54.6130000000	53
54.6430000000	53
54.6730000000	45
54.7030000000	48
54.7330000000	60
54.7630000000	51
54.7930000000	48
54.8230000000	40
54.8530000000	54
54.8830000000	56
54.9130000000	48
54.9430000000	46
54.9730000000	51
55.0030000000	62
55.0330000000	57
55.0630000000	90
55.0930000000	105
55.1230000000	117
55.1530000000	120
55.1830000000	118
55.2130000000	101
55.2430000000	100
55.2730000000	89
55.3030000000	92
55.3330000000	86
55.3630000000	82
55.3930000000	78
55.4230000000	90
55.4530000000	110
55.4830000000	112
55.5130000000	140
55.5430000000	142
55.5730000000	111
55.6030000000	115
55.6330000000	108
55.6630000000	110
55.6930000000	78
55.7230000000	67
55.7530000000	67
55.7830000000	57
55.8130000000	64
55.8430000000	44
55.8730000000	55
55.9030000000	37
55.9330000000	41
55.9630000000	60
55.9930000000	66
56.0230000000	56
56.0530000000	46
56.0830000000	49
56.1130000000	37
56.1430000000	47
56.1730000000	53
56.2030000000	45
56.2330000000	51
56.2630000000	52
56.2930000000	47
56.3230000000	47
56.3530000000	50
56.3830000000	42
56.4130000000	46
56.4430000000	40
56.4730000000	44
56.5030000000	41
56.5330000000	42
56.5630000000	41
56.5930000000	42
56.6230000000	43
56.6530000000	38
56.6830000000	46
56.7130000000	41
56.7430000000	35
56.7730000000	54
56.8030000000	46
56.8330000000	45
56.8630000000	37
56.8930000000	46
56.9230000000	52
56.9530000000	47
56.9830000000	53
57.0130000000	50
57.0430000000	45
57.0730000000	55
57.1030000000	44
57.1330000000	49
57.1630000000	49
57.1930000000	46
57.2230000000	56
57.2530000000	52
57.2830000000	58
57.3130000000	71
57.3430000000	47
57.3730000000	43
57.4030000000	53
57.4330000000	48
57.4630000000	56
57.4930000000	47
57.5230000000	43
57.5530000000	50
57.5830000000	40
57.6130000000	42
57.6430000000	49
57.6730000000	45
57.7030000000	42
57.7330000000	61
57.7630000000	34
57.7930000000	37
57.8230000000	47
57.8530000000	49
57.8830000000	46
57.9130000000	44
57.9430000000	53
57.9730000000	41
58.0030000000	49
58.0330000000	41
58.0630000000	35
58.0930000000	48
58.1230000000	40
58.1530000000	35
58.1830000000	37
58.2130000000	29
58.2430000000	41
58.2730000000	62
58.3030000000	40
58.3330000000	36
58.3630000000	43
58.3930000000	39
58.4230000000	53
58.4530000000	45
58.4830000000	49
58.5130000000	41
58.5430000000	42
58.5730000000	54
58.6030000000	35
58.6330000000	39
58.6630000000	34
58.6930000000	36
58.7230000000	40
58.7530000000	57
58.7830000000	39
58.8130000000	52
58.8430000000	40
58.8730000000	51
58.9030000000	43
58.9330000000	49
58.9630000000	33
58.9930000000	46
59.0230000000	45
59.0530000000	43
59.0830000000	38
59.1130000000	39
59.1430000000	44
59.1730000000	47
59.2030000000	39
59.2330000000	42
59.2630000000	59
59.2930000000	55
59.3230000000	47
59.3530000000	40
59.3830000000	50
59.4130000000	57
59.4430000000	47
59.4730000000	42
59.5030000000	51
59.5330000000	47
59.5630000000	52
59.5930000000	47
59.6230000000	49
59.6530000000	41
59.6830000000	35
59.7130000000	54
59.7430000000	49
59.7730000000	48
59.8030000000	53
59.8330000000	49
59.8630000000	51
59.8930000000	46
59.9230000000	53
59.9530000000	49
59.9830000000	48
60.0130000000	53
60.0430000000	40
60.0730000000	40
60.1030000000	32
60.1330000000	43
60.1630000000	44
60.1930000000	66
60.2230000000	63
60.2530000000	59
60.2830000000	59
60.3130000000	67
60.3430000000	115
60.3730000000	110
60.4030000000	145
60.4330000000	112
60.4630000000	91
60.4930000000	122
60.5230000000	79
60.5530000000	80
60.5830000000	89
60.6130000000	66
60.6430000000	57
60.6730000000	57
60.7030000000	47
60.7330000000	42
60.7630000000	46
60.7930000000	57
60.8230000000	46
60.8530000000	52
60.8830000000	50
60.9130000000	44
60.9430000000	36
60.9730000000	44
61.0030000000	41
61.0330000000	38
61.0630000000	46
61.0930000000	46
61.1230000000	39
61.1530000000	43
61.1830000000	52
61.2130000000	53
61.2430000000	47
61.2730000000	56
61.3030000000	48
61.3330000000	50
61.3630000000	61
61.3930000000	59
61.4230000000	60
61.4530000000	73
61.4830000000	83
61.5130000000	107
61.5430000000	115
61.5730000000	112
61.6030000000	128
61.6330000000	116
61.6630000000	105
61.6930000000	101
61.7230000000	98
61.7530000000	106
61.7830000000	76
61.8130000000	76
61.8430000000	67
61.8730000000	48
61.9030000000	51
61.9330000000	37
61.9630000000	44
61.9930000000	24
62.0230000000	42
62.0530000000	53
62.0830000000	37
62.1130000000	50
62.1430000000	46
62.1730000000	32
62.2030000000	35
62.2330000000	43
62.2630000000	51
62.2930000000	43
62.3230000000	45
62.3530000000	38
62.3830000000	40
62.4130000000	46
62.4430000000	43
62.4730000000	46
62.5030000000	42
62.5330000000	45
62.5630000000	32
62.5930000000	36
62.6230000000	42
62.6530000000	42
62.6830000000	48
62.7130000000	39
62.7430000000	45
62.7730000000	41
62.8030000000	41
62.8330000000	42
62.8630000000	58
62.8930000000	43
62.9230000000	33
62.9530000000	39
62.9830000000	36
63.0130000000	42
63.0430000000	52
63.0730000000	39
63.1030000000	47
63.1330000000	52
63.1630000000	43
63.1930000000	46
63.2230000000	43
63.2530000000	43
63.2830000000	55
63.3130000000	48
63.3430000000	32
63.3730000000	50
63.4030000000	62
63.4330000000	40
63.4630000000	50
63.4930000000	56
63.5230000000	58
63.5530000000	58
63.5830000000	49
63.6130000000	51
63.6430000000	40
63.6730000000	42
63.7030000000	52
63.7330000000	45
63.7630000000	48
63.7930000000	56
63.8230000000	48
63.8530000000	53
63.8830000000	36
63.9130000000	49
63.9430000000	35
63.9730000000	41
64.0030000000	37
64.0330000000	41
64.0630000000	42
64.0930000000	40
64.1230000000	28
64.1530000000	38
64.1830000000	40
64.2130000000	33
64.2430000000	42
64.2730000000	49
64.3030000000	37
64.3330000000	48
64.3630000000	41
64.3930000000	40
64.4230000000	42
64.4530000000	47
64.4830000000	38
64.5130000000	44
64.5430000000	32
64.5730000000	37
64.6030000000	52
64.6330000000	38
64.6630000000	39
64.6930000000	38
64.7230000000	43
64.7530000000	49
64.7830000000	47
64.8130000000	51
64.8430000000	46
64.8730000000	41
64.9030000000	51
64.9330000000	36
64.9630000000	40
64.9930000000	46
65.0230000000	38
65.0530000000	55
65.0830000000	34
65.1130000000	40
65.1430000000	50
65.1730000000	55
65.2030000000	31
65.2330000000	44
65.2630000000	37
65.2930000000	46
65.3230000000	34
65.3530000000	34
65.3830000000	30
65.4130000000	35
65.4430000000	41
65.4730000000	40
65.5030000000	56
65.5330000000	45
65.5630000000	39
65.5930000000	47
65.6230000000	37
65.6530000000	40
65.6830000000	51
65.7130000000	41
65.7430000000	38
65.7730000000	42
65.8030000000	40
65.8330000000	35
65.8630000000	43
65.8930000000	45
65.9230000000	45
65.9530000000	42
65.9830000000	48
66.0130000000	41
66.0430000000	42
66.0730000000	40
66.1030000000	47
66.1330000000	43
66.1630000000	46
66.1930000000	55
66.2230000000	52
66.2530000000	75
66.2830000000	81
66.3130000000	92
66.3430000000	140
66.3730000000	149
66.4030000000	176
66.4330000000	150
66.4630000000	138
66.4930000000	134
66.5230000000	125
66.5530000000	128
66.5830000000	118
66.6130000000	95
66.6430000000	88
66.6730000000	76
66.7030000000	54
66.7330000000	61
66.7630000000	51
66.7930000000	46
66.8230000000	47
66.8530000000	52
66.8830000000	48
66.9130000000	43
66.9430000000	45
66.9730000000	44
67.0030000000	52
67.0330000000	44
67.0630000000	43
67.0930000000	46
67.1230000000	40
67.1530000000	46
67.1830000000	50
67.2130000000	35
67.2430000000	29
67.2730000000	49
67.3030000000	43
67.3330000000	40
67.3630000000	46
67.3930000000	50
67.4230000000	46
67.4530000000	31
67.4830000000	42
67.5130000000	39
67.5430000000	40
67.5730000000	45
67.6030000000	48
67.6330000000	37
67.6630000000	39
67.6930000000	44
67.7230000000	49
67.7530000000	46
67.7830000000	39
67.8130000000	35
67.8430000000	39
67.8730000000	41
67.9030000000	33
67.9330000000	43
67.9630000000	41
67.9930000000	37
68.0230000000	40
68.0530000000	47
68.0830000000	38
68.1130000000	30
68.1430000000	47
68.1730000000	41
68.2030000000	49
68.2330000000	37
68.2630000000	30
68.2930000000	37
68.3230000000	49
68.3530000000	36
68.3830000000	41
68.4130000000	37
68.4430000000	39
68.4730000000	32
68.5030000000	36
68.5330000000	39
68.5630000000	47
68.5930000000	32
68.6230000000	52
68.6530000000	37
68.6830000000	40
68.7130000000	34
68.7430000000	48
68.7730000000	37
68.8030000000	28
68.8330000000	40
68.8630000000	47
68.8930000000	38
68.9230000000	41
68.9530000000	33
68.9830000000	56
69.0130000000	36
69.0430000000	49
69.0730000000	53
69.1030000000	43
69.1330000000	48
69.1630000000	39
69.1930000000	32
69.2230000000	35
69.2530000000	47
69.2830000000	35
69.3130000000	50
69.3430000000	58
69.3730000000	56
69.4030000000	43
69.4330000000	40
69.4630000000	54
69.4930000000	53
69.5230000000	54
69.5530000000	50
69.5830000000	45
69.6130000000	39
69.6430000000	44
69.6730000000	50
69.7030000000	30
69.7330000000	52
69.7630000000	35
69.7930000000	39
69.8230000000	53
69.8530000000	47
69.8830000000	34
69.9130000000	36
69.9430000000	28
69.9730000000	32
70.0030000000	37
70.0330000000	38
70.0630000000	34
70.0930000000	42
70.1230000000	43
70.1530000000	46
70.1830000000	40
70.2130000000	43
70.2430000000	40
70.2730000000	47
70.3030000000	53
70.3330000000	44
70.3630000000	36
70.3930000000	41
70.4230000000	38
70.4530000000	51
70.4830000000	52
70.5130000000	46
70.5430000000	28
70.5730000000	39
70.6030000000	38
70.6330000000	40
70.6630000000	33
70.6930000000	54
70.7230000000	43
70.7530000000	41
70.7830000000	42
70.8130000000	37
70.8430000000	42
70.8730000000	38
70.9030000000	36
70.9330000000	41
70.9630000000	28
70.9930000000	37
71.0230000000	54
71.0530000000	40
71.0830000000	33
71.1130000000	38
71.1430000000	49
71.1730000000	44
71.2030000000	34
71.2330000000	40
71.2630000000	40
71.2930000000	45
71.3230000000	49
71.3530000000	43
71.3830000000	38
71.4130000000	34
71.4430000000	31
71.4730000000	54
71.5030000000	38
71.5330000000	45
71.5630000000	37
71.5930000000	32
71.6230000000	39
71.6530000000	41
71.6830000000	39
71.7130000000	42
71.7430000000	30
71.7730000000	37
71.8030000000	51
71.8330000000	39
71.8630000000	38
71.8930000000	39
71.9230000000	43
71.9530000000	41
71.9830000000	41
72.0130000000	35
72.0430000000	39
72.0730000000	60
72.1030000000	47
72.1330000000	54
72.1630000000	58
72.1930000000	59
72.2230000000	46
72.2530000000	57
72.2830000000	51
72.3130000000	52
72.3430000000	45
72.3730000000	45
72.4030000000	64
72.4330000000	69
72.4630000000	71
72.4930000000	98
72.5230000000	111
72.5530000000	102
72.5830000000	83
72.6130000000	113
72.6430000000	107
72.6730000000	111
72.7030000000	97
72.7330000000	93
72.7630000000	89
72.7930000000	89
72.8230000000	96
72.8530000000	80
72.8830000000	77
72.9130000000	83
72.9430000000	122
72.9730000000	139
73.0030000000	165
73.0330000000	153
73.0630000000	134
73.0930000000	158
73.1230000000	131
73.1530000000	126
73.1830000000	137
73.2130000000	125
73.2430000000	111
73.2730000000	99
73.3030000000	92
73.3330000000	70
73.3630000000	68
73.3930000000	67
73.4230000000	50
73.4530000000	45
73.4830000000	44
73.5130000000	49
73.5430000000	50
73.5730000000	51
73.6030000000	47
73.6330000000	37
73.6630000000	32
73.6930000000	33
73.7230000000	41
73.7530000000	44
73.7830000000	34
73.8130000000	50
73.8430000000	49
73.8730000000	53
73.9030000000	44
73.9330000000	38
73.9630000000	45
73.9930000000	35
74.0230000000	45
74.0530000000	40
74.0830000000	41
74.1130000000	51
74.1430000000	43
74.1730000000	39
74.2030000000	49
74.2330000000	42
74.2630000000	35
74.2930000000	37
74.3230000000	48
74.3530000000	51
74.3830000000	48
74.4130000000	40
74.4430000000	49
74.4730000000	38
74.5030000000	33
74.5330000000	36
74.5630000000	51
74.5930000000	43
74.6230000000	36
74.6530000000	46
74.6830000000	55
74.7130000000	44
74.7430000000	35
74.7730000000	47
74.8030000000	44
74.8330000000	55
74.8630000000	61
74.8930000000	58
74.9230000000	61
74.9530000000	59
74.9830000000	55
75.0130000000	48
75.0430000000	49
75.0730000000	63
75.1030000000	50
75.1330000000	50
75.1630000000	55
75.1930000000	57
75.2230000000	43
75.2530000000	42
75.2830000000	41
75.3130000000	41
75.3430000000	45
75.3730000000	46
75.4030000000	49
75.4330000000	58
75.4630000000	57
75.4930000000	42
75.5230000000	41
75.5530000000	40
75.5830000000	44
75.6130000000	49
75.6430000000	38
75.6730000000	35
75.7030000000	23
75.7330000000	36
75.7630000000	38
75.7930000000	44
75.8230000000	35
75.8530000000	34
75.8830000000	37
75.9130000000	41
75.9430000000	31
75.9730000000	39
76.0030000000	50
76.0330000000	35
76.0630000000	33
76.0930000000	44
76.1230000000	46
76.1530000000	46
76.1830000000	41
76.2130000000	39
76.2430000000	40
76.2730000000	41
76.3030000000	40
76.3330000000	38
76.3630000000	41
76.3930000000	32
76.4230000000	34
76.4530000000	43
76.4830000000	46
76.5130000000	40
76.5430000000	32
76.5730000000	26
76.6030000000	34
76.6330000000	47
76.6630000000	54
76.6930000000	37
76.7230000000	29
76.7530000000	40
76.7830000000	43
76.8130000000	39
76.8430000000	46
76.8730000000	44
76.9030000000	37
76.9330000000	43
76.9630000000	39
76.9930000000	44
77.0230000000	43
77.0530000000	42
77.0830000000	36
77.1130000000	38
77.1430000000	41
77.1730000000	39
77.2030000000	42
77.2330000000	41
77.2630000000	36
77.2930000000	41
77.3230000000	40
77.3530000000	40
77.3830000000	35
77.4130000000	38
77.4430000000	41
77.4730000000	42
77.5030000000	58
77.5330000000	56
77.5630000000	67
77.5930000000	56
77.6230000000	86
77.6530000000	64
77.6830000000	60
77.7130000000	61
77.7430000000	66
77.7730000000	56
77.8030000000	71
77.8330000000	63
77.8630000000	56
77.8930000000	53
77.9230000000	57
77.9530000000	46
77.9830000000	43
78.0130000000	49
78.0430000000	54
78.0730000000	53
78.1030000000	54
78.1330000000	42
78.1630000000	50
78.1930000000	42
78.2230000000	48
78.2530000000	52
78.2830000000	47
78.3130000000	43
78.3430000000	48
78.3730000000	49
78.4030000000	48
78.4330000000	40
78.4630000000	36
78.4930000000	42
78.5230000000	39
78.5530000000	37
78.5830000000	39
78.6130000000	50
78.6430000000	51
78.6730000000	26
78.7030000000	46
78.7330000000	56
78.7630000000	49
78.7930000000	53
78.8230000000	51
78.8530000000	51
78.8830000000	53
78.9130000000	51
78.9430000000	59
78.9730000000	42
79.0030000000	39
79.0330000000	41
79.0630000000	42
79.0930000000	43
79.1230000000	35
79.1530000000	30
79.1830000000	44
79.2130000000	33
79.2430000000	39
79.2730000000	39
79.3030000000	43
79.3330000000	44
79.3630000000	38
79.3930000000	37
79.4230000000	33
79.4530000000	43
79.4830000000	43
79.5130000000	42
79.5430000000	40
79.5730000000	41
79.6030000000	43
79.6330000000	50
79.6630000000	42
79.6930000000	31
79.7230000000	43
79.7530000000	42
79.7830000000	30
79.8130000000	33
79.8430000000	36
79.8730000000	50
79.9030000000	47
79.9330000000	38
79.9630000000	45
79.9930000000	39
80.0230000000	36
80.0530000000	41
80.0830000000	44
80.1130000000	48
80.1430000000	34
80.1730000000	36
80.2030000000	38
80.2330000000	42
80.2630000000	36
80.2930000000	32
80.3230000000	34
80.3530000000	32
80.3830000000	35
80.4130000000	43
80.4430000000	33
80.4730000000	46
80.5030000000	37
80.5330000000	34
80.5630000000	42
80.5930000000	43
80.6230000000	37
80.6530000000	43
80.6830000000	31
80.7130000000	51
80.7430000000	51
80.7730000000	55
80.8030000000	53
80.8330000000	64
80.8630000000	50
80.8930000000	71
80.9230000000	51
80.9530000000	42
80.9830000000	53
81.0130000000	48
81.0430000000	33
81.0730000000	58
81.1030000000	37
81.1330000000	38
81.1630000000	48
81.1930000000	34
81.2230000000	43
81.2530000000	45
81.2830000000	41
81.3130000000	37
81.3430000000	39
81.3730000000	56
81.4030000000	53
81.4330000000	46
81.4630000000	46
81.4930000000	46
81.5230000000	36
81.5530000000	46
81.5830000000	48
81.6130000000	36
81.6430000000	40
81.6730000000	40
81.7030000000	25
81.7330000000	43
81.7630000000	40
81.7930000000	32
81.8230000000	45
81.8530000000	40
81.8830000000	40
81.9130000000	28
81.9430000000	28
81.9730000000	27
82.0030000000	30
82.0330000000	33
82.0630000000	35
82.0930000000	36
82.1230000000	37
82.1530000000	35
82.1830000000	27
82.2130000000	39
82.2430000000	35
82.2730000000	39
82.3030000000	47
82.3330000000	42
82.3630000000	39
82.3930000000	48
82.4230000000	37
82.4530000000	35
82.4830000000	34
82.5130000000	33
82.5430000000	37
82.5730000000	36
82.6030000000	37
82.6330000000	33
82.6630000000	37
82.6930000000	36
82.7230000000	34
82.7530000000	37
82.7830000000	39
82.8130000000	40
82.8430000000	38
82.8730000000	38
82.9030000000	29
82.9330000000	33
82.9630000000	39
82.9930000000	46
83.0230000000	46
83.0530000000	44
83.0830000000	37
83.1130000000	43
83.1430000000	40
83.1730000000	37
83.2030000000	48
83.2330000000	50
83.2630000000	44
83.2930000000	34
83.3230000000	47
83.3530000000	55
83.3830000000	51
83.4130000000	51
83.4430000000	54
83.4730000000	59
83.5030000000	57
83.5330000000	81
83.5630000000	63
83.5930000000	64
83.6230000000	46
83.6530000000	51
83.6830000000	33
83.7130000000	57
83.7430000000	48
83.7730000000	51
83.8030000000	37
83.8330000000	41
83.8630000000	46
83.8930000000	40
83.9230000000	43
83.9530000000	34
83.9830000000	37
84.0130000000	34
84.0430000000	33
84.0730000000	50
84.1030000000	37
84.1330000000	44
84.1630000000	30
84.1930000000	41
84.2230000000	42
84.2530000000	39
84.2830000000	46
84.3130000000	41
84.3430000000	35
84.3730000000	47
84.4030000000	42
84.4330000000	33
84.4630000000	42
84.4930000000	37
84.5230000000	41
84.5530000000	41
84.5830000000	42
84.6130000000	43
84.6430000000	43
84.6730000000	43
84.7030000000	30
84.7330000000	32
84.7630000000	32
84.7930000000	33
84.8230000000	30
84.8530000000	41
84.8830000000	32
84.9130000000	32
84.9430000000	37
84.9730000000	42
85.0030000000	33
85.0330000000	42
85.0630000000	43
85.0930000000	30
85.1230000000	31
85.1530000000	42
85.1830000000	29
85.2130000000	31
85.2430000000	34
85.2730000000	33
85.3030000000	43
85.3330000000	49
85.3630000000	37
85.3930000000	37
85.4230000000	32
85.4530000000	41
85.4830000000	40
85.5130000000	42
85.5430000000	38
85.5730000000	38
85.6030000000	37
85.6330000000	36
85.6630000000	30
85.6930000000	55
85.7230000000	46
85.7530000000	47
85.7830000000	53
85.8130000000	46
85.8430000000	35
85.8730000000	41
85.9030000000	46
85.9330000000	43
85.9630000000	40
85.9930000000	37
86.0230000000	40
86.0530000000	39
86.0830000000	33
86.1130000000	38
86.1430000000	42
86.1730000000	43
86.2030000000	35
86.2330000000	41
86.2630000000	38
86.2930000000	34
86.3230000000	43
86.3530000000	39
86.3830000000	40
86.4130000000	45
86.4430000000	43
86.4730000000	39
86.5030000000	36
86.5330000000	32
86.5630000000	34
86.5930000000	37
86.6230000000	39
86.6530000000	27
86.6830000000	36
86.7130000000	33
86.7430000000	41
86.7730000000	48
86.8030000000	39
86.8330000000	39
86.8630000000	41
86.8930000000	59
86.9230000000	49
86.9530000000	48
86.9830000000	60
87.0130000000	45
87.0430000000	44
87.0730000000	43
87.1030000000	38
87.1330000000	42
87.1630000000	37
87.1930000000	36
87.2230000000	43
87.2530000000	49
87.2830000000	48
87.3130000000	38
87.3430000000	44
87.3730000000	38
87.4030000000	36
87.4330000000	41
87.4630000000	53
87.4930000000	31
87.5230000000	41
87.5530000000	46
87.5830000000	32
87.6130000000	40
87.6430000000	38
87.6730000000	41
87.7030000000	33
87.7330000000	40
87.7630000000	42
87.7930000000	42
87.8230000000	53
87.8530000000	45
87.8830000000	38
87.9130000000	52
87.9430000000	34
87.9730000000	41
88.0030000000	53
88.0330000000	32
88.0630000000	41
88.0930000000	43
88.1230000000	35
88.1530000000	39
88.1830000000	35
88.2130000000	45
88.2430000000	38
88.2730000000	51
88.3030000000	44
88.3330000000	42
88.3630000000	50
88.3930000000	39
88.4230000000	47
88.4530000000	51
88.4830000000	64
88.5130000000	47
88.5430000000	54
88.5730000000	45
88.6030000000	40
88.6330000000	40
88.6630000000	41
88.6930000000	48
88.7230000000	52
88.7530000000	32
88.7830000000	39
88.8130000000	32
88.8430000000	38
88.8730000000	39
88.9030000000	42
88.9330000000	43
88.9630000000	47
88.9930000000	55
89.0230000000	37
89.0530000000	44
89.0830000000	40
89.1130000000	33
89.1430000000	47
89.1730000000	32
89.2030000000	45
89.2330000000	41
89.2630000000	38
89.2930000000	37
89.3230000000	48
89.3530000000	40
89.3830000000	41
89.4130000000	38
89.4430000000	38
89.4730000000	46
89.5030000000	60
89.5330000000	55
89.5630000000	44
89.5930000000	44
89.6230000000	40
89.6530000000	35
89.6830000000	53
89.7130000000	67
89.7430000000	61
89.7730000000	56
89.8030000000	51
89.8330000000	51
89.8630000000	51
89.8930000000	46
89.9230000000	51
89.9530000000	52
89.9830000000	55
90.0130000000	45
90.0430000000	52
90.0730000000	31
90.1030000000	38
90.1330000000	44
90.1630000000	39
90.1930000000	57
90.2230000000	32
90.2530000000	27
90.2830000000	37
90.3130000000	36
90.3430000000	38
90.3730000000	32
90.4030000000	36
90.4330000000	40
90.4630000000	39
90.4930000000	39
90.5230000000	46
90.5530000000	45
90.5830000000	44
90.6130000000	32
90.6430000000	49
90.6730000000	33
90.7030000000	43
90.7330000000	29
90.7630000000	34
90.7930000000	28
90.8230000000	39
90.8530000000	41
90.8830000000	41
90.9130000000	42
90.9430000000	32
90.9730000000	36
91.0030000000	34
91.0330000000	45
91.0630000000	36
91.0930000000	50
91.1230000000	26
91.1530000000	42
91.1830000000	40
91.2130000000	48
91.2430000000	27
91.2730000000	34
91.3030000000	41
91.3330000000	44
91.3630000000	41
91.3930000000	42
91.4230000000	43
91.4530000000	37
91.4830000000	35
91.5130000000	41
91.5430000000	35
91.5730000000	36
91.6030000000	40
91.6330000000	33
91.6630000000	34
91.6930000000	38
91.7230000000	35
91.7530000000	40
91.7830000000	27
91.8130000000	36
91.8430000000	40
91.8730000000	33
91.9030000000	37
91.9330000000	37
91.9630000000	41
91.9930000000	37
92.0230000000	29
92.0530000000	41
92.0830000000	32
92.1130000000	33
92.1430000000	33
92.1730000000	35
92.2030000000	34
92.2330000000	37
92.2630000000	37
92.2930000000	37
92.3230000000	36
92.3530000000	38
92.3830000000	47
92.4130000000	33
92.4430000000	41
92.4730000000	33
92.5030000000	46
92.5330000000	40
92.5630000000	50
92.5930000000	45
92.6230000000	51
92.6530000000	38
92.6830000000	39
92.7130000000	26
92.7430000000	41
92.7730000000	42
92.8030000000	31
92.8330000000	43
92.8630000000	36
92.8930000000	23
92.9230000000	31
92.9530000000	42
92.9830000000	45
93.0130000000	38
93.0430000000	40
93.0730000000	39
93.1030000000	47
93.1330000000	42
93.1630000000	29
93.1930000000	41
93.2230000000	41
93.2530000000	33
93.2830000000	41
93.3130000000	37
93.3430000000	40
93.3730000000	30
93.4030000000	38
93.4330000000	35
93.4630000000	30
93.4930000000	40
93.5230000000	33
93.5530000000	41
93.5830000000	54
93.6130000000	46
93.6430000000	34
93.6730000000	33
93.7030000000	39
93.7330000000	51
93.7630000000	45
93.7930000000	42
93.8230000000	38
93.8530000000	49
93.8830000000	36
93.9130000000	56
93.9430000000	41
93.9730000000	33
94.0030000000	39
94.0330000000	44
94.0630000000	38
94.0930000000	40
94.1230000000	41
94.1530000000	35
94.1830000000	40
94.2130000000	35
94.2430000000	30
94.2730000000	29
94.3030000000	47
94.3330000000	29
94.3630000000	31
94.3930000000	34
94.4230000000	41
94.4530000000	37
94.4830000000	32
94.5130000000	29
94.5430000000	35
94.5730000000	41
94.6030000000	35
94.6330000000	36
94.6630000000	34
94.6930000000	39
94.7230000000	44
94.7530000000	27
94.7830000000	45
94.8130000000	42
94.8430000000	41
94.8730000000	37
94.9030000000	36
94.9330000000	39
94.9630000000	41
94.9930000000	44
95.0230000000	33
95.0530000000	40
95.0830000000	44
95.1130000000	34
95.1430000000	37
95.1730000000	35
95.2030000000	46
95.2330000000	35
95.2630000000	42
95.2930000000	33
95.3230000000	41
95.3530000000	30
95.3830000000	32
95.4130000000	43
95.4430000000	35
95.4730000000	31
95.5030000000	42
95.5330000000	34
95.5630000000	46
95.5930000000	30
95.6230000000	43
95.6530000000	33
95.6830000000	36
95.7130000000	31
95.7430000000	44
95.7730000000	37
95.8030000000	30
95.8330000000	35
95.8630000000	35
95.8930000000	39
95.9230000000	37
95.9530000000	34
95.9830000000	37
96.0130000000	41
96.0430000000	42
96.0730000000	35
96.1030000000	33
96.1330000000	43
96.1630000000	34
96.1930000000	29
96.2230000000	47
96.2530000000	36
96.2830000000	38
96.3130000000	39
96.3430000000	22
96.3730000000	34
96.4030000000	40
96.4330000000	38
96.4630000000	33
96.4930000000	41
96.5230000000	40
96.5530000000	41
96.5830000000	43
96.6130000000	30
96.6430000000	34
96.6730000000	32
96.7030000000	33
96.7330000000	41
96.7630000000	48
96.7930000000	38
96.8230000000	52
96.8530000000	42
96.8830000000	35
96.9130000000	38
96.9430000000	36
96.9730000000	48
97.0030000000	43
97.0330000000	31
97.0630000000	34
97.0930000000	48
97.1230000000	50
97.1530000000	39
97.1830000000	38
97.2130000000	36
97.2430000000	35
97.2730000000	34
97.3030000000	41
97.3330000000	36
97.3630000000	32
97.3930000000	30
97.4230000000	35
97.4530000000	43
97.4830000000	40
97.5130000000	42
97.5430000000	29
97.5730000000	27
97.6030000000	37
97.6330000000	34
97.6630000000	34
97.6930000000	39
97.7230000000	43
97.7530000000	37
97.7830000000	29
97.8130000000	34
97.8430000000	38
97.8730000000	40
97.9030000000	45
97.9330000000	40
97.9630000000	49
97.9930000000	39
98.0230000000	22
98.0530000000	25
98.0830000000	41
98.1130000000	30
98.1430000000	34
98.1730000000	31
98.2030000000	39
98.2330000000	34
98.2630000000	37
98.2930000000	45
98.3230000000	30
98.3530000000	32
98.3830000000	31
98.4130000000	32
98.4430000000	46
98.4730000000	38
98.5030000000	38
98.5330000000	38
98.5630000000	43
98.5930000000	34
98.6230000000	28
98.6530000000	41
98.6830000000	36
98.7130000000	40
98.7430000000	43
98.7730000000	37
98.8030000000	37
98.8330000000	36
98.8630000000	36
98.8930000000	40
98.9230000000	36
98.9530000000	45
98.9830000000	31
99.0130000000	43
99.0430000000	34
99.0730000000	35
99.1030000000	35
99.1330000000	47
99.1630000000	35
99.1930000000	29
99.2230000000	40
99.2530000000	30
99.2830000000	31
99.3130000000	43
99.3430000000	35
99.3730000000	40
99.4030000000	38
99.4330000000	41
99.4630000000	29
99.4930000000	29
99.5230000000	36
99.5530000000	38
99.5830000000	32
99.6130000000	38
99.6430000000	33
99.6730000000	38
99.7030000000	36
99.7330000000	31
99.7630000000	39
99.7930000000	32
99.8230000000	43
99.8530000000	35
99.8830000000	31
99.9130000000	31
99.9430000000	29
99.9730000000	40
100.0030000000	41
100.0330000000	40
100.0630000000	31
100.0930000000	32
100.1230000000	44
100.1530000000	41
100.1830000000	37
100.2130000000	41
100.2430000000	40
100.2730000000	37
100.3030000000	34
100.3330000000	28
100.3630000000	32
100.3930000000	38
100.4230000000	29
100.4530000000	40
100.4830000000	26
100.5130000000	40
100.5430000000	45
100.5730000000	41
100.6030000000	37
100.6330000000	32
100.6630000000	41
100.6930000000	35
100.7230000000	40
100.7530000000	33
100.7830000000	42
100.8130000000	42
100.8430000000	36
100.8730000000	25
100.9030000000	34
100.9330000000	39
100.9630000000	40
100.9930000000	32
101.0230000000	42
101.0530000000	38
101.0830000000	37
101.1130000000	29
101.1430000000	38
101.1730000000	30
101.2030000000	28
101.2330000000	30
101.2630000000	38
101.2930000000	39
101.3230000000	35
101.3530000000	36
101.3830000000	29
101.4130000000	46
101.4430000000	44
101.4730000000	43
101.5030000000	34
101.5330000000	36
101.5630000000	38
101.5930000000	33
101.6230000000	41
101.6530000000	41
101.6830000000	31
101.7130000000	34
101.7430000000	41
101.7730000000	39
101.8030000000	20
101.8330000000	45
101.8630000000	44
101.8930000000	36
101.9230000000	25
101.9530000000	47
101.9830000000	34
102.0130000000	36
102.0430000000	31
102.0730000000	41
102.1030000000	37
102.1330000000	27
102.1630000000	38
102.1930000000	41
102.2230000000	37
102.2530000000	45
102.2830000000	27
102.3130000000	40
102.3430000000	44
102.3730000000	41
102.4030000000	29
102.4330000000	35
102.4630000000	43
102.4930000000	36
102.5230000000	31
102.5530000000	40
102.5830000000	26
102.6130000000	35
102.6430000000	26
102.6730000000	38
102.7030000000	37
102.7330000000	25
102.7630000000	45
102.7930000000	41
102.8230000000	40
102.8530000000	27
102.8830000000	39
102.9130000000	35
102.9430000000	30
102.9730000000	33
103.0030000000	30
103.0330000000	24
103.0630000000	31
103.0930000000	33
103.1230000000	47
103.1530000000	47
103.1830000000	38
103.2130000000	38
103.2430000000	32
103.2730000000	31
103.3030000000	40
103.3330000000	41
103.3630000000	38
103.3930000000	30
103.4230000000	41
103.4530000000	36
103.4830000000	25
103.5130000000	30
103.5430000000	32
103.5730000000	40
103.6030000000	34
103.6330000000	36
103.6630000000	39
103.6930000000	32
103.7230000000	34
103.7530000000	43
103.7830000000	42
103.8130000000	40
103.8430000000	40
103.8730000000	29
103.9030000000	40
103.9330000000	37
103.9630000000	39
103.9930000000	32
104.0230000000	43
104.0530000000	34
104.0830000000	35
104.1130000000	39
104.1430000000	39
104.1730000000	37
104.2030000000	45
104.2330000000	41
104.2630000000	34
104.2930000000	36
104.3230000000	43
104.3530000000	46
104.3830000000	37
104.4130000000	33
104.4430000000	41
104.4730000000	40
104.5030000000	33
104.5330000000	33
104.5630000000	39
104.5930000000	38
104.6230000000	33
104.6530000000	39
104.6830000000	45
104.7130000000	47
104.7430000000	34
104.7730000000	49
104.8030000000	54
104.8330000000	46
104.8630000000	48
104.8930000000	42
104.9230000000	39
104.9530000000	33
104.9830000000	36
105.0130000000	45
105.0430000000	40
105.0730000000	35
105.1030000000	34
105.1330000000	35
105.1630000000	41
105.1930000000	41
105.2230000000	31
105.2530000000	39
105.2830000000	39
105.3130000000	52
105.3430000000	44
105.3730000000	46
105.4030000000	43
105.4330000000	34
105.4630000000	38
105.4930000000	37
105.5230000000	34
105.5530000000	31
105.5830000000	44
105.6130000000	37
105.6430000000	34
105.6730000000	30
105.7030000000	39
105.7330000000	23
105.7630000000	35
105.7930000000	34
105.8230000000	33
105.8530000000	44
105.8830000000	42
105.9130000000	44
105.9430000000	35
105.9730000000	25
106.0030000000	34
106.0330000000	38
106.0630000000	33
106.0930000000	35
106.1230000000	37
106.1530000000	41
106.1830000000	42
106.2130000000	38
106.2430000000	34
106.2730000000	43
106.3030000000	34
106.3330000000	38
106.3630000000	48
106.3930000000	25
106.4230000000	45
106.4530000000	33
106.4830000000	47
106.5130000000	53
106.5430000000	43
106.5730000000	35
106.6030000000	31
106.6330000000	45
106.6630000000	42
106.6930000000	38
106.7230000000	35
106.7530000000	41
106.7830000000	44
106.8130000000	46
106.8430000000	46
106.8730000000	36
106.9030000000	37
106.9330000000	26
106.9630000000	36
106.9930000000	50
107.0230000000	38
107.0530000000	40
107.0830000000	44
107.1130000000	39
107.1430000000	38
107.1730000000	40
107.2030000000	26
107.2330000000	34
107.2630000000	46
107.2930000000	48
107.3230000000	37
107.3530000000	43
107.3830000000	44
107.4130000000	35
107.4430000000	25
107.4730000000	45
107.5030000000	36
107.5330000000	33
107.5630000000	34
107.5930000000	32
107.6230000000	44
107.6530000000	33
107.6830000000	33
107.7130000000	38
107.7430000000	35
107.7730000000	38
107.8030000000	42
107.8330000000	49
107.8630000000	49
107.8930000000	42
107.9230000000	49
107.9530000000	56
107.9830000000	44
108.0130000000	41
108.0430000000	41
108.0730000000	30
108.1030000000	47
108.1330000000	46
108.1630000000	33
108.1930000000	38
108.2230000000	47
108.2530000000	41
108.2830000000	43
108.3130000000	47
108.3430000000	39
108.3730000000	27
108.4030000000	47
108.4330000000	40
108.4630000000	36
108.4930000000	44
108.5230000000	39
108.5530000000	43
108.5830000000	34
108.6130000000	40
108.6430000000	34
108.6730000000	27
108.7030000000	39
108.7330000000	29
108.7630000000	37
108.7930000000	43
108.8230000000	34
108.8530000000	40
108.8830000000	28
108.9130000000	40
108.9430000000	41
108.9730000000	31
109.0030000000	37
109.0330000000	42
109.0630000000	36
109.0930000000	44
109.1230000000	30
109.1530000000	37
109.1830000000	35
109.2130000000	25
109.2430000000	39
109.2730000000	44
109.3030000000	47
109.3330000000	27
109.3630000000	42
109.3930000000	36
109.4230000000	44
109.4530000000	35
109.4830000000	37
109.5130000000	47
109.5430000000	49
109.5730000000	40
109.6030000000	42
109.6330000000	43
109.6630000000	35
109.6930000000	37
109.7230000000	38
109.7530000000	40
109.7830000000	37
109.8130000000	44
109.8430000000	51
109.8730000000	39
109.9030000000	42
109.9330000000	39
109.9630000000	51
109.9930000000	44
110.0230000000	37
110.0530000000	39
110.0830000000	42
110.1130000000	39
110.1430000000	43
110.1730000000	34
110.2030000000	41
110.2330000000	33
110.2630000000	44
110.2930000000	43
110.3230000000	44
110.3530000000	46
110.3830000000	50
110.4130000000	31
110.4430000000	35
110.4730000000	49
110.5030000000	41
110.5330000000	37
110.5630000000	41
110.5930000000	41
110.6230000000	35
110.6530000000	34
110.6830000000	37
110.7130000000	37
110.7430000000	45
110.7730000000	47
110.8030000000	45
110.8330000000	41
110.8630000000	41
110.8930000000	40
110.9230000000	33
110.9530000000	32
110.9830000000	31
111.0130000000	34
111.0430000000	38
111.0730000000	35
111.1030000000	37
111.1330000000	37
111.1630000000	30
111.1930000000	40
111.2230000000	57
111.2530000000	54
111.2830000000	45
111.3130000000	42
111.3430000000	47
111.3730000000	28
111.4030000000	40
111.4330000000	38
111.4630000000	33
111.4930000000	41
111.5230000000	46
111.5530000000	34
111.5830000000	41
111.6130000000	48
111.6430000000	40
111.6730000000	42
111.7030000000	48
111.7330000000	30
111.7630000000	38
111.7930000000	38
111.8230000000	50
111.8530000000	34
111.8830000000	42
111.9130000000	51
111.9430000000	41
111.9730000000	43
112.0030000000	44
112.0330000000	29
112.0630000000	35
112.0930000000	44
112.1230000000	47
112.1530000000	48
112.1830000000	42
112.2130000000	37
112.2430000000	34
112.2730000000	46
112.3030000000	38
112.3330000000	39
112.3630000000	32
112.3930000000	41
112.4230000000	30
112.4530000000	48
112.4830000000	46
112.5130000000	47
112.5430000000	30
112.5730000000	31
112.6030000000	38
112.6330000000	43
112.6630000000	45
112.6930000000	55
112.7230000000	45
112.7530000000	33
112.7830000000	39
112.8130000000	43
112.8430000000	40
112.8730000000	39
112.9030000000	36
112.9330000000	32
112.9630000000	49
112.9930000000	47
113.0230000000	36
113.0530000000	41
113.0830000000	39
113.1130000000	49
113.1430000000	33
113.1730000000	51
113.2030000000	54
113.2330000000	66
113.2630000000	72
113.2930000000	77
113.3230000000	75
113.3530000000	62
113.3830000000	58
113.4130000000	55
113.4430000000	51
113.4730000000	49
113.5030000000	41
113.5330000000	47
113.5630000000	43
113.5930000000	59
113.6230000000	62
113.6530000000	57
113.6830000000	42
113.7130000000	46
113.7430000000	49
113.7730000000	39
113.8030000000	43
113.8330000000	46
113.8630000000	37
113.8930000000	32
113.9230000000	38
113.9530000000	27
113.9830000000	37
114.0130000000	29
114.0430000000	46
114.0730000000	51
114.1030000000	47
114.1330000000	35
114.1630000000	52
114.1930000000	44
114.2230000000	36
114.2530000000	42
114.2830000000	49
114.3130000000	47
114.3430000000	44
114.3730000000	39
114.4030000000	34
114.4330000000	46
114.4630000000	1
114.4930000000	1
114.5230000000	1
114.5530000000	1
114.5830000000	1
