0.3130000000	1
0.3430000000	2
0.3730000000	3
0.4030000000	1
0.4330000000	1
0.4630000000	1
0.4930000000	1
0.5230000000	1
0.5530000000	1
0.5830000000	1
0.6130000000	2
0.6430000000	1
0.6730000000	2
0.7030000000	1
0.7330000000	1
0.7630000000	1
0.7930000000	1
0.8230000000	1
0.8530000000	1
0.8830000000	1
0.9130000000	1
0.9430000000	1
0.9730000000	1
1.0030000000	2
1.0330000000	1
1.0630000000	1
1.0930000000	1
1.1230000000	1
1.1530000000	2
1.1830000000	1
1.2130000000	1
1.2430000000	1
1.2730000000	1
1.3030000000	1
1.3330000000	4
1.3630000000	2
1.3930000000	2
1.4230000000	1
1.4530000000	1
1.4830000000	1
1.5130000000	1
1.5430000000	1
1.5730000000	1
1.6030000000	2
1.6330000000	1
1.6630000000	1
1.6930000000	1
1.7230000000	1
1.7530000000	1
1.7830000000	1
1.8130000000	1
1.8430000000	2
1.8730000000	1
1.9030000000	1
1.9330000000	2
1.9630000000	1
1.9930000000	1
2.0230000000	1
2.0530000000	2
2.0830000000	1
2.1130000000	1
2.1430000000	1
2.1730000000	1
2.2030000000	1
2.2330000000	2
2.2630000000	1
2.2930000000	2
2.3230000000	2
2.3530000000	2
2.3830000000	2
2.4130000000	1
2.4430000000	1
2.4730000000	1
2.5030000000	1
2.5330000000	2
2.5630000000	2
2.5930000000	2
2.6230000000	2
2.6530000000	2
2.6830000000	1
2.7130000000	1
2.7430000000	2
2.7730000000	1
2.8030000000	2
2.8330000000	1
2.8630000000	1
2.8930000000	2
2.9230000000	2
2.9530000000	1
2.9830000000	2
3.0130000000	2
3.0430000000	1
3.0730000000	2
3.1030000000	3
3.1330000000	1
3.1630000000	1
3.1930000000	1
3.2230000000	1
3.2530000000	1
3.2830000000	2
3.3130000000	2
3.3430000000	1
3.3730000000	1
3.4030000000	2
3.4330000000	1
3.4630000000	1
3.4930000000	1
3.5230000000	3
3.5530000000	1
3.5830000000	1
3.6130000000	1
3.6430000000	3
3.6730000000	2
3.7030000000	1
3.7330000000	2
3.7630000000	2
3.7930000000	2
3.8230000000	2
3.8530000000	1
3.8830000000	3
3.9130000000	2
3.9430000000	3
3.9730000000	4
4.0030000000	2
4.0330000000	1
4.0630000000	3
4.0930000000	3
4.1230000000	2
4.1530000000	3
4.1830000000	2
4.2130000000	5
4.2430000000	2
4.2730000000	1
4.3030000000	2
4.3330000000	5
4.3630000000	3
4.3930000000	8
4.4230000000	2
4.4530000000	7
4.4830000000	15
4.5130000000	20
4.5430000000	42
4.5730000000	56
4.6030000000	77
4.6330000000	87
4.6630000000	102
4.6930000000	126
4.7230000000	125
4.7530000000	139
4.7830000000	136
4.8130000000	140
4.8430000000	134
4.8730000000	162
4.9030000000	124
4.9330000000	139
4.9630000000	139
4.9930000000	145
5.0230000000	132
5.0530000000	153
5.0830000000	137
5.1130000000	137
5.1430000000	165
5.1730000000	137
5.2030000000	133
5.2330000000	137
5.2630000000	159
5.2930000000	151
5.3230000000	148
5.3530000000	143
5.3830000000	159
5.4130000000	147
5.4430000000	133
5.4730000000	152
5.5030000000	139
5.5330000000	142
5.5630000000	144
5.5930000000	135
5.6230000000	141
5.6530000000	143
5.6830000000	146
5.7130000000	129
5.7430000000	165
5.7730000000	136
5.8030000000	147
5.8330000000	155
5.8630000000	126
5.8930000000	145
5.9230000000	115
5.9530000000	133
5.9830000000	146
6.0130000000	155
6.0430000000	128
6.0730000000	136
6.1030000000	157
6.1330000000	149
6.1630000000	146
6.1930000000	136
6.2230000000	162
6.2530000000	150
6.2830000000	124
6.3130000000	138
6.3430000000	174
6.3730000000	172
6.4030000000	154
6.4330000000	122
6.4630000000	147
6.4930000000	152
6.5230000000	172
6.5530000000	140
6.5830000000	143
6.6130000000	142
6.6430000000	144
6.6730000000	140
6.7030000000	150
6.7330000000	164
6.7630000000	148
6.7930000000	138
6.8230000000	135
6.8530000000	141
6.8830000000	141
6.9130000000	142
6.9430000000	150
6.9730000000	135
7.0030000000	146
7.0330000000	172
7.0630000000	138
7.0930000000	119
7.1230000000	155
7.1530000000	144
7.1830000000	137
7.2130000000	134
7.2430000000	135
7.2730000000	147
7.3030000000	137
7.3330000000	135
7.3630000000	133
7.3930000000	134
7.4230000000	154
7.4530000000	156
7.4830000000	144
7.5130000000	143
7.5430000000	139
7.5730000000	144
7.6030000000	142
7.6330000000	140
7.6630000000	142
7.6930000000	154
7.7230000000	139
7.7530000000	139
7.7830000000	154
7.8130000000	140
7.8430000000	144
7.8730000000	141
7.9030000000	122
7.9330000000	143
7.9630000000	162
7.9930000000	144
8.0230000000	147
8.0530000000	181
8.0830000000	153
8.1130000000	146
8.1430000000	156
8.1730000000	158
8.2030000000	145
8.2330000000	141
8.2630000000	158
8.2930000000	156
8.3230000000	153
8.3530000000	148
8.3830000000	178
8.4130000000	143
8.4430000000	149
8.4730000000	139
8.5030000000	127
8.5330000000	139
8.5630000000	132
8.5930000000	139
8.6230000000	118
8.6530000000	149
8.6830000000	159
8.7130000000	132
8.7430000000	146
8.7730000000	142
8.8030000000	139
8.8330000000	161
8.8630000000	134
8.8930000000	163
8.9230000000	155
8.9530000000	159
8.9830000000	128
9.0130000000	165
9.0430000000	150
9.0730000000	148
9.1030000000	154
9.1330000000	144
9.1630000000	147
9.1930000000	135
9.2230000000	133
9.2530000000	146
9.2830000000	135
9.3130000000	143
9.3430000000	146
9.3730000000	133
9.4030000000	146
9.4330000000	161
9.4630000000	131
9.4930000000	123
9.5230000000	128
9.5530000000	130
9.5830000000	152
9.6130000000	125
9.6430000000	152
9.6730000000	138
9.7030000000	148
9.7330000000	171
9.7630000000	152
9.7930000000	130
9.8230000000	152
9.8530000000	139
9.8830000000	172
9.9130000000	148
9.9430000000	150
9.9730000000	150
10.0030000000	123
10.0330000000	140
10.0630000000	152
10.0930000000	160
10.1230000000	150
10.1530000000	150
10.1830000000	165
10.2130000000	142
10.2430000000	114
10.2730000000	143
10.3030000000	141
10.3330000000	148
10.3630000000	135
10.3930000000	150
10.4230000000	150
10.4530000000	148
10.4830000000	156
10.5130000000	154
10.5430000000	150
10.5730000000	155
10.6030000000	142
10.6330000000	127
10.6630000000	163
10.6930000000	142
10.7230000000	144
10.7530000000	136
10.7830000000	134
10.8130000000	162
10.8430000000	174
10.8730000000	149
10.9030000000	142
10.9330000000	170
10.9630000000	169
10.9930000000	142
11.0230000000	150
11.0530000000	170
11.0830000000	171
11.1130000000	138
11.1430000000	141
11.1730000000	155
11.2030000000	141
11.2330000000	146
11.2630000000	147
11.2930000000	158
11.3230000000	150
11.3530000000	139
11.3830000000	135
11.4130000000	141
11.4430000000	140
11.4730000000	150
11.5030000000	147
11.5330000000	130
11.5630000000	145
11.5930000000	151
11.6230000000	148
11.6530000000	150
11.6830000000	147
11.7130000000	141
11.7430000000	141
11.7730000000	131
11.8030000000	162
11.8330000000	149
11.8630000000	135
11.8930000000	177
11.9230000000	137
11.9530000000	146
11.9830000000	139
12.0130000000	133
12.0430000000	135
12.0730000000	150
12.1030000000	154
12.1330000000	152
12.1630000000	146
12.1930000000	150
12.2230000000	141
12.2530000000	142
12.2830000000	142
12.3130000000	118
12.3430000000	135
12.3730000000	161
12.4030000000	163
12.4330000000	165
12.4630000000	161
12.4930000000	152
12.5230000000	156
12.5530000000	145
12.5830000000	140
12.6130000000	142
12.6430000000	145
12.6730000000	146
12.7030000000	135
12.7330000000	129
12.7630000000	148
12.7930000000	150
12.8230000000	139
12.8530000000	148
12.8830000000	154
12.9130000000	151
12.9430000000	138
12.9730000000	143
13.0030000000	150
13.0330000000	151
13.0630000000	150
13.0930000000	157
13.1230000000	168
13.1530000000	150
13.1830000000	164
13.2130000000	133
13.2430000000	135
13.2730000000	124
13.3030000000	152
13.3330000000	150
13.3630000000	133
13.3930000000	144
13.4230000000	147
13.4530000000	135
13.4830000000	143
13.5130000000	142
13.5430000000	144
13.5730000000	160
13.6030000000	141
13.6330000000	137
13.6630000000	165
13.6930000000	142
13.7230000000	134
13.7530000000	140
13.7830000000	182
13.8130000000	159
13.8430000000	142
13.8730000000	155
13.9030000000	139
13.9330000000	147
13.9630000000	147
13.9930000000	137
14.0230000000	138
14.0530000000	150
14.0830000000	130
14.1130000000	131
14.1430000000	129
14.1730000000	141
14.2030000000	141
14.2330000000	138
14.2630000000	146
14.2930000000	131
14.3230000000	135
14.3530000000	144
14.3830000000	164
14.4130000000	130
14.4430000000	148
14.4730000000	129
14.5030000000	142
14.5330000000	168
14.5630000000	138
14.5930000000	140
14.6230000000	155
14.6530000000	156
14.6830000000	158
14.7130000000	138
14.7430000000	151
14.7730000000	168
14.8030000000	148
14.8330000000	156
14.8630000000	160
14.8930000000	153
14.9230000000	144
14.9530000000	139
14.9830000000	134
15.0130000000	155
15.0430000000	160
15.0730000000	132
15.1030000000	154
15.1330000000	168
15.1630000000	153
15.1930000000	167
15.2230000000	177
15.2530000000	140
15.2830000000	162
15.3130000000	169
15.3430000000	167
15.3730000000	145
15.4030000000	153
15.4330000000	152
15.4630000000	136
15.4930000000	136
15.5230000000	139
15.5530000000	160
15.5830000000	166
15.6130000000	146
15.6430000000	163
15.6730000000	149
15.7030000000	152
15.7330000000	153
15.7630000000	162
15.7930000000	159
15.8230000000	158
15.8530000000	161
15.8830000000	152
15.9130000000	145
15.9430000000	173
15.9730000000	148
16.0030000000	135
16.0330000000	151
16.0630000000	146
16.0930000000	149
16.1230000000	132
16.1530000000	153
16.1830000000	149
16.2130000000	134
16.2430000000	143
16.2730000000	144
16.3030000000	131
16.3330000000	135
16.3630000000	153
16.3930000000	146
16.4230000000	169
16.4530000000	152
16.4830000000	151
16.5130000000	154
16.5430000000	154
16.5730000000	135
16.6030000000	149
16.6330000000	117
16.6630000000	149
16.6930000000	133
16.7230000000	141
16.7530000000	131
16.7830000000	143
16.8130000000	150
16.8430000000	148
16.8730000000	136
16.9030000000	147
16.9330000000	122
16.9630000000	145
16.9930000000	131
17.0230000000	149
17.0530000000	145
17.0830000000	153
17.1130000000	139
17.1430000000	150
17.1730000000	150
17.2030000000	142
17.2330000000	140
17.2630000000	153
17.2930000000	155
17.3230000000	147
17.3530000000	154
17.3830000000	149
17.4130000000	144
17.4430000000	168
17.4730000000	176
17.5030000000	150
17.5330000000	147
17.5630000000	139
17.5930000000	148
17.6230000000	158
17.6530000000	148
17.6830000000	162
17.7130000000	152
17.7430000000	149
17.7730000000	164
17.8030000000	149
17.8330000000	137
17.8630000000	150
17.8930000000	155
17.9230000000	142
17.9530000000	137
17.9830000000	124
18.0130000000	131
18.0430000000	154
18.0730000000	136
18.1030000000	150
18.1330000000	146
18.1630000000	145
18.1930000000	151
18.2230000000	158
18.2530000000	140
18.2830000000	145
18.3130000000	154
18.3430000000	142
18.3730000000	134
18.4030000000	141
18.4330000000	129
18.4630000000	142
18.4930000000	136
18.5230000000	140
18.5530000000	157
18.5830000000	138
18.6130000000	137
18.6430000000	169
18.6730000000	141
18.7030000000	137
18.7330000000	157
18.7630000000	148
18.7930000000	155
18.8230000000	143
18.8530000000	146
18.8830000000	137
18.9130000000	144
18.9430000000	146
18.9730000000	146
19.0030000000	149
19.0330000000	143
19.0630000000	158
19.0930000000	145
19.1230000000	148
19.1530000000	145
19.1830000000	145
19.2130000000	142
19.2430000000	163
19.2730000000	139
19.3030000000	146
19.3330000000	179
19.3630000000	175
19.3930000000	182
19.4230000000	200
19.4530000000	235
19.4830000000	259
19.5130000000	267
19.5430000000	315
19.5730000000	357
19.6030000000	386
19.6330000000	293
19.6630000000	289
19.6930000000	238
19.7230000000	192
19.7530000000	189
19.7830000000	165
19.8130000000	154
19.8430000000	157
19.8730000000	149
19.9030000000	160
19.9330000000	158
19.9630000000	119
19.9930000000	157
20.0230000000	131
20.0530000000	153
20.0830000000	163
20.1130000000	153
20.1430000000	158
20.1730000000	162
20.2030000000	160
20.2330000000	158
20.2630000000	151
20.2930000000	156
20.3230000000	169
20.3530000000	143
20.3830000000	179
20.4130000000	145
20.4430000000	141
20.4730000000	171
20.5030000000	157
20.5330000000	139
20.5630000000	137
20.5930000000	157
20.6230000000	161
20.6530000000	144
20.6830000000	162
20.7130000000	133
20.7430000000	173
20.7730000000	133
20.8030000000	161
20.8330000000	147
20.8630000000	152
20.8930000000	158
20.9230000000	158
20.9530000000	178
20.9830000000	152
21.0130000000	163
21.0430000000	166
21.0730000000	151
21.1030000000	164
21.1330000000	148
21.1630000000	158
21.1930000000	145
21.2230000000	131
21.2530000000	143
21.2830000000	146
21.3130000000	161
21.3430000000	148
21.3730000000	160
21.4030000000	137
21.4330000000	167
21.4630000000	167
21.4930000000	149
21.5230000000	166
21.5530000000	147
21.5830000000	136
21.6130000000	155
21.6430000000	166
21.6730000000	171
21.7030000000	156
21.7330000000	137
21.7630000000	151
21.7930000000	141
21.8230000000	170
21.8530000000	177
21.8830000000	154
21.9130000000	161
21.9430000000	156
21.9730000000	148
22.0030000000	177
22.0330000000	175
22.0630000000	187
22.0930000000	180
22.1230000000	164
22.1530000000	149
22.1830000000	174
22.2130000000	174
22.2430000000	145
22.2730000000	159
22.3030000000	158
22.3330000000	163
22.3630000000	173
22.3930000000	166
22.4230000000	162
22.4530000000	167
22.4830000000	193
22.5130000000	191
22.5430000000	179
22.5730000000	181
22.6030000000	182
22.6330000000	196
22.6630000000	192
22.6930000000	195
22.7230000000	241
22.7530000000	246
22.7830000000	229
22.8130000000	205
22.8430000000	206
22.8730000000	178
22.9030000000	170
22.9330000000	172
22.9630000000	181
22.9930000000	181
23.0230000000	165
23.0530000000	170
23.0830000000	160
23.1130000000	180
23.1430000000	151
23.1730000000	181
23.2030000000	184
23.2330000000	167
23.2630000000	163
23.2930000000	158
23.3230000000	163
23.3530000000	193
23.3830000000	180
23.4130000000	168
23.4430000000	165
23.4730000000	176
23.5030000000	179
23.5330000000	176
23.5630000000	168
23.5930000000	156
23.6230000000	155
23.6530000000	161
23.6830000000	158
23.7130000000	180
23.7430000000	159
23.7730000000	182
23.8030000000	154
23.8330000000	154
23.8630000000	152
23.8930000000	184
23.9230000000	156
23.9530000000	195
23.9830000000	181
24.0130000000	166
24.0430000000	163
24.0730000000	157
24.1030000000	152
24.1330000000	170
24.1630000000	148
24.1930000000	160
24.2230000000	165
24.2530000000	173
24.2830000000	164
24.3130000000	167
24.3430000000	168
24.3730000000	150
24.4030000000	171
24.4330000000	161
24.4630000000	168
24.4930000000	166
24.5230000000	180
24.5530000000	148
24.5830000000	155
24.6130000000	152
24.6430000000	173
24.6730000000	164
24.7030000000	170
24.7330000000	132
24.7630000000	167
24.7930000000	181
24.8230000000	157
24.8530000000	149
24.8830000000	172
24.9130000000	176
24.9430000000	151
24.9730000000	173
25.0030000000	147
25.0330000000	171
25.0630000000	160
25.0930000000	188
25.1230000000	160
25.1530000000	155
25.1830000000	160
25.2130000000	183
25.2430000000	173
25.2730000000	176
25.3030000000	148
25.3330000000	174
25.3630000000	151
25.3930000000	143
25.4230000000	166
25.4530000000	153
25.4830000000	172
25.5130000000	181
25.5430000000	169
25.5730000000	159
25.6030000000	173
25.6330000000	166
25.6630000000	168
25.6930000000	167
25.7230000000	166
25.7530000000	158
25.7830000000	152
25.8130000000	148
25.8430000000	173
25.8730000000	185
25.9030000000	165
25.9330000000	159
25.9630000000	166
25.9930000000	160
26.0230000000	168
26.0530000000	163
26.0830000000	154
26.1130000000	176
26.1430000000	161
26.1730000000	203
26.2030000000	213
26.2330000000	231
26.2630000000	231
26.2930000000	315
26.3230000000	423
26.3530000000	595
26.3830000000	779
26.4130000000	916
26.4430000000	991
26.4730000000	970
26.5030000000	736
26.5330000000	527
26.5630000000	382
26.5930000000	289
26.6230000000	237
26.6530000000	209
26.6830000000	205
26.7130000000	190
26.7430000000	199
26.7730000000	192
26.8030000000	173
26.8330000000	157
26.8630000000	142
26.8930000000	148
26.9230000000	162
26.9530000000	152
26.9830000000	149
27.0130000000	163
27.0430000000	149
27.0730000000	142
27.1030000000	146
27.1330000000	150
27.1630000000	165
27.1930000000	153
27.2230000000	136
27.2530000000	157
27.2830000000	165
27.3130000000	130
27.3430000000	137
27.3730000000	153
27.4030000000	147
27.4330000000	151
27.4630000000	116
27.4930000000	157
27.5230000000	176
27.5530000000	149
27.5830000000	151
27.6130000000	154
27.6430000000	151
27.6730000000	143
27.7030000000	149
27.7330000000	143
27.7630000000	135
27.7930000000	132
27.8230000000	143
27.8530000000	155
27.8830000000	155
27.9130000000	151
27.9430000000	152
27.9730000000	149
28.0030000000	145
28.0330000000	149
28.0630000000	160
28.0930000000	139
28.1230000000	182
28.1530000000	175
28.1830000000	145
28.2130000000	164
28.2430000000	127
28.2730000000	152
28.3030000000	142
28.3330000000	162
28.3630000000	150
28.3930000000	139
28.4230000000	131
28.4530000000	138
28.4830000000	152
28.5130000000	154
28.5430000000	132
28.5730000000	139
28.6030000000	154
28.6330000000	158
28.6630000000	136
28.6930000000	165
28.7230000000	147
28.7530000000	141
28.7830000000	154
28.8130000000	151
28.8430000000	170
28.8730000000	161
28.9030000000	158
28.9330000000	149
28.9630000000	144
28.9930000000	145
29.0230000000	156
29.0530000000	155
29.0830000000	154
29.1130000000	131
29.1430000000	163
29.1730000000	139
29.2030000000	146
29.2330000000	119
29.2630000000	136
29.2930000000	132
29.3230000000	129
29.3530000000	135
29.3830000000	135
29.4130000000	141
29.4430000000	131
29.4730000000	117
29.5030000000	127
29.5330000000	149
29.5630000000	139
29.5930000000	126
29.6230000000	145
29.6530000000	123
29.6830000000	137
29.7130000000	138
29.7430000000	129
29.7730000000	137
29.8030000000	147
29.8330000000	123
29.8630000000	152
29.8930000000	135
29.9230000000	145
29.9530000000	130
29.9830000000	141
30.0130000000	141
30.0430000000	169
30.0730000000	138
30.1030000000	150
30.1330000000	164
30.1630000000	162
30.1930000000	195
30.2230000000	241
30.2530000000	317
30.2830000000	456
30.3130000000	676
30.3430000000	1063
30.3730000000	1547
30.4030000000	2159
30.4330000000	2672
30.4630000000	2814
30.4930000000	2438
30.5230000000	1763
30.5530000000	1189
30.5830000000	789
30.6130000000	527
30.6430000000	345
30.6730000000	240
30.7030000000	197
30.7330000000	161
30.7630000000	170
30.7930000000	154
30.8230000000	152
30.8530000000	161
30.8830000000	147
30.9130000000	154
30.9430000000	133
30.9730000000	152
31.0030000000	138
31.0330000000	141
31.0630000000	135
31.0930000000	123
31.1230000000	143
31.1530000000	152
31.1830000000	141
31.2130000000	115
31.2430000000	119
31.2730000000	143
31.3030000000	133
31.3330000000	132
31.3630000000	116
31.3930000000	124
31.4230000000	130
31.4530000000	124
31.4830000000	153
31.5130000000	136
31.5430000000	144
31.5730000000	157
31.6030000000	161
31.6330000000	165
31.6630000000	197
31.6930000000	222
31.7230000000	291
31.7530000000	405
31.7830000000	573
31.8130000000	788
31.8430000000	1075
31.8730000000	1477
31.9030000000	1579
31.9330000000	1590
31.9630000000	1261
31.9930000000	1053
32.0230000000	813
32.0530000000	767
32.0830000000	867
32.1130000000	989
32.1430000000	1179
32.1730000000	1214
32.2030000000	1095
32.2330000000	846
32.2630000000	587
32.2930000000	418
32.3230000000	314
32.3530000000	222
32.3830000000	180
32.4130000000	150
32.4430000000	136
32.4730000000	138
32.5030000000	118
32.5330000000	123
32.5630000000	109
32.5930000000	123
32.6230000000	122
32.6530000000	118
32.6830000000	121
32.7130000000	120
32.7430000000	107
32.7730000000	107
32.8030000000	105
32.8330000000	102
32.8630000000	121
32.8930000000	102
32.9230000000	106
32.9530000000	107
32.9830000000	92
33.0130000000	101
33.0430000000	96
33.0730000000	112
33.1030000000	114
33.1330000000	122
33.1630000000	132
33.1930000000	136
33.2230000000	131
33.2530000000	124
33.2830000000	118
33.3130000000	123
33.3430000000	126
33.3730000000	132
33.4030000000	126
33.4330000000	129
33.4630000000	130
33.4930000000	128
33.5230000000	125
33.5530000000	100
33.5830000000	91
33.6130000000	110
33.6430000000	124
33.6730000000	111
33.7030000000	76
33.7330000000	91
33.7630000000	97
33.7930000000	95
33.8230000000	109
33.8530000000	120
33.8830000000	115
33.9130000000	115
33.9430000000	90
33.9730000000	87
34.0030000000	108
34.0330000000	94
34.0630000000	91
34.0930000000	102
34.1230000000	102
34.1530000000	93
34.1830000000	94
34.2130000000	102
34.2430000000	104
34.2730000000	103
34.3030000000	100
34.3330000000	105
34.3630000000	115
34.3930000000	88
34.4230000000	84
34.4530000000	101
34.4830000000	93
34.5130000000	96
34.5430000000	100
34.5730000000	94
34.6030000000	94
34.6330000000	107
34.6630000000	101
34.6930000000	93
34.7230000000	96
34.7530000000	105
34.7830000000	110
34.8130000000	101
34.8430000000	98
34.8730000000	97
34.9030000000	118
34.9330000000	114
34.9630000000	86
34.9930000000	96
35.0230000000	109
35.0530000000	101
35.0830000000	92
35.1130000000	104
35.1430000000	124
35.1730000000	118
35.2030000000	135
35.2330000000	130
35.2630000000	164
35.2930000000	191
35.3230000000	230
35.3530000000	272
35.3830000000	274
35.4130000000	269
35.4430000000	242
35.4730000000	185
35.5030000000	175
35.5330000000	162
35.5630000000	125
35.5930000000	118
35.6230000000	117
35.6530000000	89
35.6830000000	90
35.7130000000	102
35.7430000000	98
35.7730000000	87
35.8030000000	90
35.8330000000	88
35.8630000000	111
35.8930000000	109
35.9230000000	101
35.9530000000	108
35.9830000000	86
36.0130000000	89
36.0430000000	93
36.0730000000	85
36.1030000000	79
36.1330000000	101
36.1630000000	92
36.1930000000	94
36.2230000000	102
36.2530000000	92
36.2830000000	99
36.3130000000	94
36.3430000000	92
36.3730000000	92
36.4030000000	98
36.4330000000	128
36.4630000000	113
36.4930000000	127
36.5230000000	143
36.5530000000	199
36.5830000000	237
36.6130000000	327
36.6430000000	436
36.6730000000	477
36.7030000000	393
36.7330000000	337
36.7630000000	267
36.7930000000	195
36.8230000000	170
36.8530000000	140
36.8830000000	115
36.9130000000	93
36.9430000000	109
36.9730000000	87
37.0030000000	86
37.0330000000	101
37.0630000000	90
37.0930000000	89
37.1230000000	95
37.1530000000	101
37.1830000000	67
37.2130000000	89
37.2430000000	82
37.2730000000	91
37.3030000000	91
37.3330000000	92
37.3630000000	85
37.3930000000	90
37.4230000000	79
37.4530000000	89
37.4830000000	86
37.5130000000	80
37.5430000000	98
37.5730000000	94
37.6030000000	69
37.6330000000	93
37.6630000000	76
37.6930000000	91
37.7230000000	105
37.7530000000	78
37.7830000000	69
37.8130000000	74
37.8430000000	87
37.8730000000	79
37.9030000000	83
37.9330000000	103
37.9630000000	107
37.9930000000	79
38.0230000000	76
38.0530000000	91
38.0830000000	85
38.1130000000	86
38.1430000000	90
38.1730000000	83
38.2030000000	70
38.2330000000	77
38.2630000000	91
38.2930000000	89
38.3230000000	77
38.3530000000	77
38.3830000000	97
38.4130000000	94
38.4430000000	88
38.4730000000	90
38.5030000000	81
38.5330000000	95
38.5630000000	93
38.5930000000	79
38.6230000000	99
38.6530000000	87
38.6830000000	86
38.7130000000	93
38.7430000000	84
38.7730000000	77
38.8030000000	82
38.8330000000	91
38.8630000000	105
38.8930000000	100
38.9230000000	77
38.9530000000	91
38.9830000000	109
39.0130000000	108
39.0430000000	99
39.0730000000	99
39.1030000000	103
39.1330000000	88
39.1630000000	88
39.1930000000	98
39.2230000000	94
39.2530000000	78
39.2830000000	111
39.3130000000	73
39.3430000000	90
39.3730000000	100
39.4030000000	82
39.4330000000	95
39.4630000000	115
39.4930000000	97
39.5230000000	117
39.5530000000	140
39.5830000000	160
39.6130000000	237
39.6430000000	315
39.6730000000	474
39.7030000000	675
39.7330000000	988
39.7630000000	1201
39.7930000000	1213
39.8230000000	1037
39.8530000000	892
39.8830000000	657
39.9130000000	429
39.9430000000	271
39.9730000000	208
40.0030000000	168
40.0330000000	116
40.0630000000	106
40.0930000000	98
40.1230000000	78
40.1530000000	99
40.1830000000	88
40.2130000000	130
40.2430000000	89
40.2730000000	98
40.3030000000	87
40.3330000000	80
40.3630000000	79
40.3930000000	100
40.4230000000	95
40.4530000000	103
40.4830000000	71
40.5130000000	97
40.5430000000	65
40.5730000000	105
40.6030000000	102
40.6330000000	94
40.6630000000	82
40.6930000000	91
40.7230000000	83
40.7530000000	90
40.7830000000	75
40.8130000000	89
40.8430000000	96
40.8730000000	91
40.9030000000	111
40.9330000000	88
40.9630000000	94
40.9930000000	94
41.0230000000	79
41.0530000000	87
41.0830000000	89
41.1130000000	85
41.1430000000	82
41.1730000000	103
41.2030000000	68
41.2330000000	83
41.2630000000	90
41.2930000000	95
41.3230000000	74
41.3530000000	86
41.3830000000	89
41.4130000000	88
41.4430000000	96
41.4730000000	96
41.5030000000	86
41.5330000000	73
41.5630000000	90
41.5930000000	83
41.6230000000	76
41.6530000000	85
41.6830000000	83
41.7130000000	71
41.7430000000	72
41.7730000000	79
41.8030000000	83
41.8330000000	89
41.8630000000	94
41.8930000000	79
41.9230000000	78
41.9530000000	76
41.9830000000	81
42.0130000000	86
42.0430000000	75
42.0730000000	79
42.1030000000	84
42.1330000000	92
42.1630000000	82
42.1930000000	88
42.2230000000	85
42.2530000000	94
42.2830000000	94
42.3130000000	85
42.3430000000	86
42.3730000000	83
42.4030000000	77
42.4330000000	75
42.4630000000	84
42.4930000000	86
42.5230000000	89
42.5530000000	83
42.5830000000	79
42.6130000000	78
42.6430000000	77
42.6730000000	83
42.7030000000	84
42.7330000000	84
42.7630000000	75
42.7930000000	81
42.8230000000	95
42.8530000000	85
42.8830000000	99
42.9130000000	93
42.9430000000	106
42.9730000000	111
43.0030000000	123
43.0330000000	165
43.0630000000	195
43.0930000000	319
43.1230000000	420
43.1530000000	549
43.1830000000	848
43.2130000000	1147
43.2430000000	1297
43.2730000000	1286
43.3030000000	1165
43.3330000000	912
43.3630000000	699
43.3930000000	478
43.4230000000	312
43.4530000000	215
43.4830000000	162
43.5130000000	147
43.5430000000	112
43.5730000000	105
43.6030000000	109
43.6330000000	103
43.6630000000	94
43.6930000000	95
43.7230000000	120
43.7530000000	119
43.7830000000	118
43.8130000000	103
43.8430000000	96
43.8730000000	124
43.9030000000	92
43.9330000000	74
43.9630000000	77
43.9930000000	81
44.0230000000	72
44.0530000000	78
44.0830000000	66
44.1130000000	70
44.1430000000	78
44.1730000000	78
44.2030000000	59
44.2330000000	72
44.2630000000	62
44.2930000000	77
44.3230000000	76
44.3530000000	70
44.3830000000	77
44.4130000000	82
44.4430000000	65
44.4730000000	66
44.5030000000	65
44.5330000000	70
44.5630000000	54
44.5930000000	55
44.6230000000	77
44.6530000000	72
44.6830000000	88
44.7130000000	68
44.7430000000	70
44.7730000000	76
44.8030000000	64
44.8330000000	76
44.8630000000	91
44.8930000000	113
44.9230000000	121
44.9530000000	194
44.9830000000	239
45.0130000000	331
45.0430000000	476
45.0730000000	614
45.1030000000	838
45.1330000000	833
45.1630000000	710
45.1930000000	604
45.2230000000	493
45.2530000000	349
45.2830000000	252
45.3130000000	164
45.3430000000	112
45.3730000000	109
45.4030000000	82
45.4330000000	91
45.4630000000	86
45.4930000000	75
45.5230000000	69
45.5530000000	79
45.5830000000	76
45.6130000000	77
45.6430000000	76
45.6730000000	67
45.7030000000	82
45.7330000000	79
45.7630000000	57
45.7930000000	76
45.8230000000	82
45.8530000000	64
45.8830000000	79
45.9130000000	92
45.9430000000	95
45.9730000000	94
46.0030000000	115
46.0330000000	150
46.0630000000	166
46.0930000000	183
46.1230000000	199
46.1530000000	180
46.1830000000	156
46.2130000000	157
46.2430000000	137
46.2730000000	107
46.3030000000	108
46.3330000000	87
46.3630000000	87
46.3930000000	83
46.4230000000	100
46.4530000000	108
46.4830000000	108
46.5130000000	104
46.5430000000	114
46.5730000000	103
46.6030000000	107
46.6330000000	107
46.6630000000	81
46.6930000000	59
46.7230000000	67
46.7530000000	74
46.7830000000	83
46.8130000000	69
46.8430000000	100
46.8730000000	109
46.9030000000	122
46.9330000000	142
46.9630000000	175
46.9930000000	262
47.0230000000	267
47.0530000000	280
47.0830000000	255
47.1130000000	236
47.1430000000	172
47.1730000000	132
47.2030000000	123
47.2330000000	94
47.2630000000	68
47.2930000000	70
47.3230000000	65
47.3530000000	64
47.3830000000	71
47.4130000000	83
47.4430000000	81
47.4730000000	90
47.5030000000	89
47.5330000000	82
47.5630000000	110
47.5930000000	84
47.6230000000	76
47.6530000000	92
47.6830000000	85
47.7130000000	71
47.7430000000	78
47.7730000000	62
47.8030000000	64
47.8330000000	66
47.8630000000	61
47.8930000000	60
47.9230000000	57
47.9530000000	54
47.9830000000	67
48.0130000000	52
48.0430000000	84
48.0730000000	64
48.1030000000	56
48.1330000000	50
48.1630000000	52
48.1930000000	69
48.2230000000	51
48.2530000000	56
48.2830000000	65
48.3130000000	55
48.3430000000	50
48.3730000000	64
48.4030000000	53
48.4330000000	52
48.4630000000	57
48.4930000000	59
48.5230000000	66
48.5530000000	62
48.5830000000	57
48.6130000000	61
48.6430000000	52
48.6730000000	60
48.7030000000	72
48.7330000000	58
48.7630000000	55
48.7930000000	66
48.8230000000	65
48.8530000000	59
48.8830000000	57
48.9130000000	67
48.9430000000	67
48.9730000000	49
49.0030000000	52
49.0330000000	65
49.0630000000	48
49.0930000000	42
49.1230000000	56
49.1530000000	46
49.1830000000	47
49.2130000000	58
49.2430000000	48
49.2730000000	41
49.3030000000	47
49.3330000000	58
49.3630000000	44
49.3930000000	64
49.4230000000	64
49.4530000000	55
49.4830000000	43
49.5130000000	63
49.5430000000	55
49.5730000000	50
49.6030000000	60
49.6330000000	66
49.6630000000	53
49.6930000000	57
49.7230000000	65
49.7530000000	64
49.7830000000	57
49.8130000000	60
49.8430000000	61
49.8730000000	69
49.9030000000	50
49.9330000000	54
49.9630000000	58
49.9930000000	55
50.0230000000	53
50.0530000000	54
50.0830000000	57
50.1130000000	45
50.1430000000	47
50.1730000000	55
50.2030000000	60
50.2330000000	51
50.2630000000	62
50.2930000000	59
50.3230000000	47
50.3530000000	63
50.3830000000	52
50.4130000000	51
50.4430000000	78
50.4730000000	69
50.5030000000	68
50.5330000000	81
50.5630000000	97
50.5930000000	118
50.6230000000	94
50.6530000000	90
50.6830000000	87
50.7130000000	55
50.7430000000	69
50.7730000000	71
50.8030000000	48
50.8330000000	53
50.8630000000	60
50.8930000000	51
50.9230000000	57
50.9530000000	54
50.9830000000	53
51.0130000000	49
51.0430000000	57
51.0730000000	65
51.1030000000	57
51.1330000000	42
51.1630000000	44
51.1930000000	53
51.2230000000	41
51.2530000000	40
51.2830000000	47
51.3130000000	50
51.3430000000	53
51.3730000000	52
51.4030000000	48
51.4330000000	46
51.4630000000	45
51.4930000000	51
51.5230000000	43
51.5530000000	48
51.5830000000	53
51.6130000000	45
51.6430000000	58
51.6730000000	56
51.7030000000	51
51.7330000000	56
51.7630000000	45
51.7930000000	47
51.8230000000	49
51.8530000000	48
51.8830000000	56
51.9130000000	55
51.9430000000	59
51.9730000000	56
52.0030000000	56
52.0330000000	52
52.0630000000	48
52.0930000000	64
52.1230000000	61
52.1530000000	78
52.1830000000	69
52.2130000000	85
52.2430000000	89
52.2730000000	86
52.3030000000	82
52.3330000000	71
52.3630000000	70
52.3930000000	61
52.4230000000	59
52.4530000000	58
52.4830000000	53
52.5130000000	56
52.5430000000	41
52.5730000000	43
52.6030000000	47
52.6330000000	61
52.6630000000	50
52.6930000000	34
52.7230000000	46
52.7530000000	63
52.7830000000	50
52.8130000000	43
52.8430000000	62
52.8730000000	54
52.9030000000	46
52.9330000000	45
52.9630000000	42
52.9930000000	52
53.0230000000	43
53.0530000000	52
53.0830000000	52
53.1130000000	53
53.1430000000	54
53.1730000000	40
53.2030000000	47
53.2330000000	50
53.2630000000	58
53.2930000000	41
53.3230000000	60
53.3530000000	41
53.3830000000	51
53.4130000000	55
53.4430000000	41
53.4730000000	47
53.5030000000	54
53.5330000000	60
53.5630000000	55
53.5930000000	50
53.6230000000	48
53.6530000000	41
53.6830000000	52
53.7130000000	52
53.7430000000	54
53.7730000000	61
53.8030000000	61
53.8330000000	71
53.8630000000	75
53.8930000000	104
53.9230000000	116
53.9530000000	137
53.9830000000	112
54.0130000000	98
54.0430000000	102
54.0730000000	102
54.1030000000	80
54.1330000000	78
54.1630000000	53
54.1930000000	47
54.2230000000	60
54.2530000000	52
54.2830000000	47
54.3130000000	63
54.3430000000	56
54.3730000000	56
54.4030000000	47
54.4330000000	51
54.4630000000	45
54.4930000000	49
54.5230000000	67
54.5530000000	39
54.5830000000	51
54.6130000000	54
54.6430000000	51
54.6730000000	48
54.7030000000	46
54.7330000000	48
54.7630000000	53
54.7930000000	55
54.8230000000	64
54.8530000000	57
54.8830000000	41
54.9130000000	56
54.9430000000	51
54.9730000000	70
55.0030000000	93
55.0330000000	119
55.0630000000	118
55.0930000000	128
55.1230000000	115
55.1530000000	110
55.1830000000	104
55.2130000000	91
55.2430000000	100
55.2730000000	68
55.3030000000	80
55.3330000000	75
55.3630000000	61
55.3930000000	95
55.4230000000	99
55.4530000000	107
55.4830000000	116
55.5130000000	134
55.5430000000	114
55.5730000000	118
55.6030000000	106
55.6330000000	90
55.6630000000	87
55.6930000000	75
55.7230000000	64
55.7530000000	68
55.7830000000	51
55.8130000000	65
55.8430000000	46
55.8730000000	50
55.9030000000	51
55.9330000000	51
55.9630000000	53
55.9930000000	42
56.0230000000	44
56.0530000000	40
56.0830000000	51
56.1130000000	53
56.1430000000	44
56.1730000000	41
56.2030000000	47
56.2330000000	49
56.2630000000	50
56.2930000000	32
56.3230000000	46
56.3530000000	46
56.3830000000	48
56.4130000000	61
56.4430000000	44
56.4730000000	49
56.5030000000	44
56.5330000000	37
56.5630000000	49
56.5930000000	56
56.6230000000	49
56.6530000000	44
56.6830000000	52
56.7130000000	52
56.7430000000	38
56.7730000000	35
56.8030000000	50
56.8330000000	51
56.8630000000	29
56.8930000000	47
56.9230000000	61
56.9530000000	44
56.9830000000	55
57.0130000000	52
57.0430000000	53
57.0730000000	50
57.1030000000	45
57.1330000000	38
57.1630000000	53
57.1930000000	47
57.2230000000	53
57.2530000000	49
57.2830000000	51
57.3130000000	46
57.3430000000	47
57.3730000000	43
57.4030000000	56
57.4330000000	54
57.4630000000	42
57.4930000000	40
57.5230000000	48
57.5530000000	50
57.5830000000	42
57.6130000000	36
57.6430000000	55
57.6730000000	42
57.7030000000	55
57.7330000000	45
57.7630000000	55
57.7930000000	37
57.8230000000	47
57.8530000000	44
57.8830000000	53
57.9130000000	47
57.9430000000	35
57.9730000000	41
58.0030000000	32
58.0330000000	52
58.0630000000	48
58.0930000000	29
58.1230000000	63
58.1530000000	50
58.1830000000	44
58.2130000000	44
58.2430000000	52
58.2730000000	58
58.3030000000	46
58.3330000000	51
58.3630000000	52
58.3930000000	47
58.4230000000	47
58.4530000000	27
58.4830000000	50
58.5130000000	38
58.5430000000	42
58.5730000000	41
58.6030000000	39
58.6330000000	46
58.6630000000	44
58.6930000000	40
58.7230000000	49
58.7530000000	43
58.7830000000	42
58.8130000000	36
58.8430000000	40
58.8730000000	46
58.9030000000	60
58.9330000000	39
58.9630000000	66
58.9930000000	44
59.0230000000	44
59.0530000000	46
59.0830000000	38
59.1130000000	49
59.1430000000	47
59.1730000000	44
59.2030000000	43
59.2330000000	45
59.2630000000	45
59.2930000000	35
59.3230000000	38
59.3530000000	54
59.3830000000	45
59.4130000000	48
59.4430000000	56
59.4730000000	45
59.5030000000	42
59.5330000000	53
59.5630000000	56
59.5930000000	42
59.6230000000	51
59.6530000000	46
59.6830000000	59
59.7130000000	44
59.7430000000	68
59.7730000000	51
59.8030000000	54
59.8330000000	53
59.8630000000	52
59.8930000000	56
59.9230000000	46
59.9530000000	44
59.9830000000	47
60.0130000000	41
60.0430000000	52
60.0730000000	47
60.1030000000	58
60.1330000000	46
60.1630000000	67
60.1930000000	68
60.2230000000	78
60.2530000000	96
60.2830000000	114
60.3130000000	125
60.3430000000	125
60.3730000000	129
60.4030000000	134
60.4330000000	95
60.4630000000	95
60.4930000000	95
60.5230000000	72
60.5530000000	59
60.5830000000	53
60.6130000000	53
60.6430000000	53
60.6730000000	42
60.7030000000	50
60.7330000000	56
60.7630000000	46
60.7930000000	30
60.8230000000	38
60.8530000000	40
60.8830000000	45
60.9130000000	31
60.9430000000	48
60.9730000000	49
61.0030000000	40
61.0330000000	41
61.0630000000	57
61.0930000000	46
61.1230000000	61
61.1530000000	39
61.1830000000	40
61.2130000000	45
61.2430000000	51
61.2730000000	60
61.3030000000	70
61.3330000000	59
61.3630000000	50
61.3930000000	64
61.4230000000	50
61.4530000000	73
61.4830000000	78
61.5130000000	84
61.5430000000	111
61.5730000000	122
61.6030000000	124
61.6330000000	116
61.6630000000	91
61.6930000000	96
61.7230000000	97
61.7530000000	66
61.7830000000	64
61.8130000000	77
61.8430000000	58
61.8730000000	56
61.9030000000	38
61.9330000000	60
61.9630000000	49
61.9930000000	49
62.0230000000	38
62.0530000000	37
62.0830000000	44
62.1130000000	38
62.1430000000	37
62.1730000000	52
62.2030000000	47
62.2330000000	30
62.2630000000	38
62.2930000000	45
62.3230000000	41
62.3530000000	35
62.3830000000	49
62.4130000000	43
62.4430000000	47
62.4730000000	34
62.5030000000	43
62.5330000000	40
62.5630000000	42
62.5930000000	43
62.6230000000	42
62.6530000000	42
62.6830000000	42
62.7130000000	57
62.7430000000	39
62.7730000000	38
62.8030000000	42
62.8330000000	39
62.8630000000	48
62.8930000000	48
62.9230000000	56
62.9530000000	52
62.9830000000	49
63.0130000000	40
63.0430000000	28
63.0730000000	36
63.1030000000	38
63.1330000000	41
63.1630000000	45
63.1930000000	36
63.2230000000	30
63.2530000000	42
63.2830000000	48
63.3130000000	39
63.3430000000	41
63.3730000000	53
63.4030000000	54
63.4330000000	53
63.4630000000	63
63.4930000000	46
63.5230000000	48
63.5530000000	53
63.5830000000	48
63.6130000000	42
63.6430000000	46
63.6730000000	49
63.7030000000	31
63.7330000000	30
63.7630000000	37
63.7930000000	43
63.8230000000	47
63.8530000000	53
63.8830000000	35
63.9130000000	46
63.9430000000	35
63.9730000000	34
64.0030000000	41
64.0330000000	41
64.0630000000	38
64.0930000000	41
64.1230000000	48
64.1530000000	47
64.1830000000	35
64.2130000000	45
64.2430000000	50
64.2730000000	43
64.3030000000	39
64.3330000000	35
64.3630000000	35
64.3930000000	40
64.4230000000	48
64.4530000000	43
64.4830000000	31
64.5130000000	41
64.5430000000	34
64.5730000000	41
64.6030000000	41
64.6330000000	42
64.6630000000	41
64.6930000000	57
64.7230000000	46
64.7530000000	50
64.7830000000	53
64.8130000000	54
64.8430000000	49
64.8730000000	40
64.9030000000	46
64.9330000000	53
64.9630000000	52
64.9930000000	45
65.0230000000	42
65.0530000000	38
65.0830000000	48
65.1130000000	54
65.1430000000	33
65.1730000000	45
65.2030000000	38
65.2330000000	27
65.2630000000	46
65.2930000000	44
65.3230000000	44
65.3530000000	32
65.3830000000	44
65.4130000000	39
65.4430000000	32
65.4730000000	42
65.5030000000	45
65.5330000000	37
65.5630000000	47
65.5930000000	36
65.6230000000	31
65.6530000000	39
65.6830000000	45
65.7130000000	50
65.7430000000	35
65.7730000000	35
65.8030000000	47
65.8330000000	46
65.8630000000	50
65.8930000000	55
65.9230000000	41
65.9530000000	44
65.9830000000	53
66.0130000000	48
66.0430000000	38
66.0730000000	46
66.1030000000	54
66.1330000000	52
66.1630000000	62
66.1930000000	90
66.2230000000	106
66.2530000000	122
66.2830000000	149
66.3130000000	159
66.3430000000	162
66.3730000000	140
66.4030000000	133
66.4330000000	105
66.4630000000	117
66.4930000000	118
66.5230000000	106
66.5530000000	87
66.5830000000	66
66.6130000000	55
66.6430000000	55
66.6730000000	54
66.7030000000	43
66.7330000000	43
66.7630000000	34
66.7930000000	32
66.8230000000	50
66.8530000000	38
66.8830000000	50
66.9130000000	44
66.9430000000	39
66.9730000000	41
67.0030000000	43
67.0330000000	39
67.0630000000	46
67.0930000000	39
67.1230000000	38
67.1530000000	36
67.1830000000	41
67.2130000000	45
67.2430000000	31
67.2730000000	27
67.3030000000	30
67.3330000000	37
67.3630000000	40
67.3930000000	49
67.4230000000	34
67.4530000000	42
67.4830000000	38
67.5130000000	42
67.5430000000	50
67.5730000000	30
67.6030000000	48
67.6330000000	44
67.6630000000	50
67.6930000000	37
67.7230000000	41
67.7530000000	33
67.7830000000	41
67.8130000000	42
67.8430000000	39
67.8730000000	49
67.9030000000	43
67.9330000000	31
67.9630000000	41
67.9930000000	43
68.0230000000	35
68.0530000000	39
68.0830000000	38
68.1130000000	44
68.1430000000	53
68.1730000000	40
68.2030000000	45
68.2330000000	36
68.2630000000	30
68.2930000000	39
68.3230000000	46
68.3530000000	41
68.3830000000	44
68.4130000000	53
68.4430000000	33
68.4730000000	34
68.5030000000	37
68.5330000000	28
68.5630000000	45
68.5930000000	48
68.6230000000	41
68.6530000000	32
68.6830000000	38
68.7130000000	40
68.7430000000	46
68.7730000000	42
68.8030000000	40
68.8330000000	47
68.8630000000	46
68.8930000000	38
68.9230000000	34
68.9530000000	56
68.9830000000	26
69.0130000000	38
69.0430000000	47
69.0730000000	35
69.1030000000	41
69.1330000000	42
69.1630000000	42
69.1930000000	41
69.2230000000	50
69.2530000000	41
69.2830000000	52
69.3130000000	44
69.3430000000	51
69.3730000000	50
69.4030000000	47
69.4330000000	40
69.4630000000	46
69.4930000000	51
69.5230000000	37
69.5530000000	45
69.5830000000	46
69.6130000000	46
69.6430000000	42
69.6730000000	41
69.7030000000	34
69.7330000000	43
69.7630000000	44
69.7930000000	49
69.8230000000	47
69.8530000000	59
69.8830000000	46
69.9130000000	49
69.9430000000	37
69.9730000000	41
70.0030000000	37
70.0330000000	46
70.0630000000	48
70.0930000000	45
70.1230000000	36
70.1530000000	39
70.1830000000	36
70.2130000000	33
70.2430000000	41
70.2730000000	37
70.3030000000	34
70.3330000000	44
70.3630000000	38
70.3930000000	38
70.4230000000	37
70.4530000000	40
70.4830000000	49
70.5130000000	41
70.5430000000	40
70.5730000000	47
70.6030000000	44
70.6330000000	36
70.6630000000	49
70.6930000000	42
70.7230000000	34
70.7530000000	27
70.7830000000	33
70.8130000000	50
70.8430000000	46
70.8730000000	37
70.9030000000	40
70.9330000000	47
70.9630000000	43
70.9930000000	35
71.0230000000	39
71.0530000000	50
71.0830000000	41
71.1130000000	40
71.1430000000	49
71.1730000000	43
71.2030000000	33
71.2330000000	35
71.2630000000	46
71.2930000000	39
71.3230000000	38
71.3530000000	36
71.3830000000	49
71.4130000000	43
71.4430000000	40
71.4730000000	49
71.5030000000	55
71.5330000000	42
71.5630000000	42
71.5930000000	46
71.6230000000	39
71.6530000000	38
71.6830000000	32
71.7130000000	58
71.7430000000	39
71.7730000000	40
71.8030000000	51
71.8330000000	42
71.8630000000	52
71.8930000000	49
71.9230000000	43
71.9530000000	53
71.9830000000	49
72.0130000000	52
72.0430000000	45
72.0730000000	46
72.1030000000	54
72.1330000000	62
72.1630000000	46
72.1930000000	50
72.2230000000	49
72.2530000000	62
72.2830000000	52
72.3130000000	54
72.3430000000	60
72.3730000000	87
72.4030000000	82
72.4330000000	104
72.4630000000	110
72.4930000000	99
72.5230000000	82
72.5530000000	100
72.5830000000	95
72.6130000000	91
72.6430000000	84
72.6730000000	92
72.7030000000	80
72.7330000000	64
72.7630000000	67
72.7930000000	73
72.8230000000	84
72.8530000000	112
72.8830000000	104
72.9130000000	143
72.9430000000	164
72.9730000000	175
73.0030000000	189
73.0330000000	148
73.0630000000	115
73.0930000000	113
73.1230000000	120
73.1530000000	105
73.1830000000	92
73.2130000000	93
73.2430000000	79
73.2730000000	60
73.3030000000	60
73.3330000000	64
73.3630000000	44
73.3930000000	59
73.4230000000	47
73.4530000000	52
73.4830000000	52
73.5130000000	55
73.5430000000	49
73.5730000000	37
73.6030000000	40
73.6330000000	41
73.6630000000	35
73.6930000000	37
73.7230000000	45
73.7530000000	49
73.7830000000	51
73.8130000000	47
73.8430000000	44
73.8730000000	31
73.9030000000	44
73.9330000000	38
73.9630000000	56
73.9930000000	41
74.0230000000	31
74.0530000000	33
74.0830000000	48
74.1130000000	63
74.1430000000	47
74.1730000000	43
74.2030000000	35
74.2330000000	41
74.2630000000	44
74.2930000000	36
74.3230000000	35
74.3530000000	38
74.3830000000	50
74.4130000000	35
74.4430000000	39
74.4730000000	42
74.5030000000	40
74.5330000000	35
74.5630000000	37
74.5930000000	39
74.6230000000	41
74.6530000000	40
74.6830000000	36
74.7130000000	54
74.7430000000	69
74.7730000000	49
74.8030000000	50
74.8330000000	45
74.8630000000	57
74.8930000000	60
74.9230000000	46
74.9530000000	46
74.9830000000	48
75.0130000000	55
75.0430000000	42
75.0730000000	48
75.1030000000	50
75.1330000000	47
75.1630000000	37
75.1930000000	55
75.2230000000	47
75.2530000000	52
75.2830000000	61
75.3130000000	49
75.3430000000	50
75.3730000000	54
75.4030000000	47
75.4330000000	46
75.4630000000	52
75.4930000000	42
75.5230000000	46
75.5530000000	41
75.5830000000	43
75.6130000000	40
75.6430000000	49
75.6730000000	38
75.7030000000	36
75.7330000000	30
75.7630000000	33
75.7930000000	37
75.8230000000	40
75.8530000000	41
75.8830000000	34
75.9130000000	35
75.9430000000	34
75.9730000000	33
76.0030000000	38
76.0330000000	39
76.0630000000	34
76.0930000000	35
76.1230000000	37
76.1530000000	34
76.1830000000	42
76.2130000000	53
76.2430000000	39
76.2730000000	41
76.3030000000	37
76.3330000000	34
76.3630000000	45
76.3930000000	31
76.4230000000	44
76.4530000000	41
76.4830000000	37
76.5130000000	43
76.5430000000	41
76.5730000000	49
76.6030000000	41
76.6330000000	35
76.6630000000	34
76.6930000000	38
76.7230000000	42
76.7530000000	41
76.7830000000	43
76.8130000000	38
76.8430000000	36
76.8730000000	29
76.9030000000	36
76.9330000000	43
76.9630000000	29
76.9930000000	37
77.0230000000	35
77.0530000000	37
77.0830000000	39
77.1130000000	43
77.1430000000	41
77.1730000000	41
77.2030000000	30
77.2330000000	43
77.2630000000	39
77.2930000000	42
77.3230000000	37
77.3530000000	53
77.3830000000	33
77.4130000000	39
77.4430000000	44
77.4730000000	68
77.5030000000	59
77.5330000000	71
77.5630000000	64
77.5930000000	63
77.6230000000	67
77.6530000000	79
77.6830000000	75
77.7130000000	67
77.7430000000	60
77.7730000000	75
77.8030000000	61
77.8330000000	53
77.8630000000	56
77.8930000000	47
77.9230000000	47
77.9530000000	55
77.9830000000	58
78.0130000000	64
78.0430000000	64
78.0730000000	47
78.1030000000	53
78.1330000000	49
78.1630000000	53
78.1930000000	51
78.2230000000	39
78.2530000000	35
78.2830000000	49
78.3130000000	47
78.3430000000	43
78.3730000000	38
78.4030000000	42
78.4330000000	45
78.4630000000	41
78.4930000000	45
78.5230000000	33
78.5530000000	39
78.5830000000	35
78.6130000000	37
78.6430000000	47
78.6730000000	48
78.7030000000	51
78.7330000000	62
78.7630000000	49
78.7930000000	52
78.8230000000	53
78.8530000000	66
78.8830000000	49
78.9130000000	34
78.9430000000	56
78.9730000000	54
79.0030000000	36
79.0330000000	38
79.0630000000	59
79.0930000000	41
79.1230000000	32
79.1530000000	41
79.1830000000	37
79.2130000000	44
79.2430000000	47
79.2730000000	38
79.3030000000	37
79.3330000000	30
79.3630000000	46
79.3930000000	33
79.4230000000	36
79.4530000000	48
79.4830000000	30
79.5130000000	51
79.5430000000	40
79.5730000000	36
79.6030000000	50
79.6330000000	34
79.6630000000	40
79.6930000000	45
79.7230000000	35
79.7530000000	36
79.7830000000	45
79.8130000000	34
79.8430000000	40
79.8730000000	45
79.9030000000	52
79.9330000000	52
79.9630000000	39
79.9930000000	58
80.0230000000	35
80.0530000000	42
80.0830000000	40
80.1130000000	57
80.1430000000	35
80.1730000000	32
80.2030000000	40
80.2330000000	44
80.2630000000	45
80.2930000000	42
80.3230000000	38
80.3530000000	42
80.3830000000	44
80.4130000000	50
80.4430000000	41
80.4730000000	36
80.5030000000	38
80.5330000000	42
80.5630000000	42
80.5930000000	46
80.6230000000	48
80.6530000000	61
80.6830000000	65
80.7130000000	57
80.7430000000	63
80.7730000000	54
80.8030000000	54
80.8330000000	48
80.8630000000	56
80.8930000000	58
80.9230000000	52
80.9530000000	57
80.9830000000	50
81.0130000000	44
81.0430000000	32
81.0730000000	42
81.1030000000	47
81.1330000000	40
81.1630000000	37
81.1930000000	46
81.2230000000	39
81.2530000000	35
81.2830000000	35
81.3130000000	33
81.3430000000	39
81.3730000000	47
81.4030000000	54
81.4330000000	48
81.4630000000	46
81.4930000000	37
81.5230000000	51
81.5530000000	41
81.5830000000	34
81.6130000000	45
81.6430000000	38
81.6730000000	33
81.7030000000	28
81.7330000000	38
81.7630000000	34
81.7930000000	39
81.8230000000	38
81.8530000000	43
81.8830000000	40
81.9130000000	28
81.9430000000	30
81.9730000000	48
82.0030000000	40
82.0330000000	39
82.0630000000	33
82.0930000000	38
82.1230000000	38
82.1530000000	40
82.1830000000	40
82.2130000000	33
82.2430000000	31
82.2730000000	37
82.3030000000	41
82.3330000000	44
82.3630000000	37
82.3930000000	30
82.4230000000	39
82.4530000000	43
82.4830000000	42
82.5130000000	34
82.5430000000	24
82.5730000000	31
82.6030000000	36
82.6330000000	44
82.6630000000	32
82.6930000000	30
82.7230000000	42
82.7530000000	42
82.7830000000	46
82.8130000000	29
82.8430000000	38
82.8730000000	32
82.9030000000	42
82.9330000000	43
82.9630000000	61
82.9930000000	61
83.0230000000	39
83.0530000000	38
83.0830000000	45
83.1130000000	42
83.1430000000	42
83.1730000000	50
83.2030000000	53
83.2330000000	34
83.2630000000	34
83.2930000000	58
83.3230000000	76
83.3530000000	52
83.3830000000	58
83.4130000000	52
83.4430000000	45
83.4730000000	56
83.5030000000	44
83.5330000000	46
83.5630000000	47
83.5930000000	53
83.6230000000	69
83.6530000000	39
83.6830000000	42
83.7130000000	41
83.7430000000	42
83.7730000000	52
83.8030000000	52
83.8330000000	41
83.8630000000	26
83.8930000000	40
83.9230000000	44
83.9530000000	30
83.9830000000	31
84.0130000000	36
84.0430000000	38
84.0730000000	36
84.1030000000	38
84.1330000000	32
84.1630000000	34
84.1930000000	39
84.2230000000	30
84.2530000000	24
84.2830000000	40
84.3130000000	38
84.3430000000	37
84.3730000000	43
84.4030000000	38
84.4330000000	33
84.4630000000	34
84.4930000000	36
84.5230000000	37
84.5530000000	26
84.5830000000	45
84.6130000000	39
84.6430000000	46
84.6730000000	31
84.7030000000	33
84.7330000000	35
84.7630000000	35
84.7930000000	39
84.8230000000	32
84.8530000000	42
84.8830000000	34
84.9130000000	39
84.9430000000	38
84.9730000000	30
85.0030000000	43
85.0330000000	55
85.0630000000	44
85.0930000000	29
85.1230000000	39
85.1530000000	29
85.1830000000	36
85.2130000000	35
85.2430000000	31
85.2730000000	31
85.3030000000	55
85.3330000000	40
85.3630000000	50
85.3930000000	43
85.4230000000	34
85.4530000000	51
85.4830000000	38
85.5130000000	37
85.5430000000	50
85.5730000000	38
85.6030000000	40
85.6330000000	57
85.6630000000	60
85.6930000000	48
85.7230000000	48
85.7530000000	32
85.7830000000	50
85.8130000000	53
85.8430000000	53
85.8730000000	41
85.9030000000	40
85.9330000000	40
85.9630000000	35
85.9930000000	43
86.0230000000	33
86.0530000000	49
86.0830000000	46
86.1130000000	46
86.1430000000	32
86.1730000000	43
86.2030000000	38
86.2330000000	44
86.2630000000	52
86.2930000000	41
86.3230000000	30
86.3530000000	29
86.3830000000	38
86.4130000000	39
86.4430000000	35
86.4730000000	43
86.5030000000	40
86.5330000000	35
86.5630000000	46
86.5930000000	41
86.6230000000	44
86.6530000000	45
86.6830000000	44
86.7130000000	36
86.7430000000	32
86.7730000000	45
86.8030000000	41
86.8330000000	40
86.8630000000	40
86.8930000000	39
86.9230000000	44
86.9530000000	39
86.9830000000	53
87.0130000000	53
87.0430000000	43
87.0730000000	37
87.1030000000	37
87.1330000000	44
87.1630000000	43
87.1930000000	39
87.2230000000	33
87.2530000000	44
87.2830000000	54
87.3130000000	39
87.3430000000	41
87.3730000000	34
87.4030000000	35
87.4330000000	29
87.4630000000	37
87.4930000000	29
87.5230000000	39
87.5530000000	44
87.5830000000	39
87.6130000000	41
87.6430000000	41
87.6730000000	34
87.7030000000	41
87.7330000000	51
87.7630000000	43
87.7930000000	45
87.8230000000	47
87.8530000000	53
87.8830000000	33
87.9130000000	44
87.9430000000	37
87.9730000000	40
88.0030000000	46
88.0330000000	41
88.0630000000	42
88.0930000000	40
88.1230000000	40
88.1530000000	29
88.1830000000	36
88.2130000000	50
88.2430000000	43
88.2730000000	38
88.3030000000	54
88.3330000000	41
88.3630000000	47
88.3930000000	54
88.4230000000	55
88.4530000000	54
88.4830000000	55
88.5130000000	47
88.5430000000	39
88.5730000000	50
88.6030000000	56
88.6330000000	49
88.6630000000	53
88.6930000000	41
88.7230000000	40
88.7530000000	38
88.7830000000	45
88.8130000000	51
88.8430000000	46
88.8730000000	44
88.9030000000	50
88.9330000000	37
88.9630000000	48
88.9930000000	45
89.0230000000	35
89.0530000000	38
89.0830000000	37
89.1130000000	38
89.1430000000	34
89.1730000000	26
89.2030000000	32
89.2330000000	40
89.2630000000	43
89.2930000000	40
89.3230000000	35
89.3530000000	43
89.3830000000	35
89.4130000000	42
89.4430000000	49
89.4730000000	48
89.5030000000	49
89.5330000000	64
89.5630000000	52
89.5930000000	42
89.6230000000	53
89.6530000000	57
89.6830000000	60
89.7130000000	58
89.7430000000	51
89.7730000000	47
89.8030000000	48
89.8330000000	54
89.8630000000	49
89.8930000000	36
89.9230000000	47
89.9530000000	43
89.9830000000	40
90.0130000000	39
90.0430000000	33
90.0730000000	33
90.1030000000	40
90.1330000000	43
90.1630000000	38
90.1930000000	43
90.2230000000	37
90.2530000000	42
90.2830000000	31
90.3130000000	33
90.3430000000	41
90.3730000000	42
90.4030000000	41
90.4330000000	38
90.4630000000	31
90.4930000000	47
90.5230000000	39
90.5530000000	30
90.5830000000	40
90.6130000000	49
90.6430000000	40
90.6730000000	53
90.7030000000	41
90.7330000000	35
90.7630000000	42
90.7930000000	30
90.8230000000	43
90.8530000000	39
90.8830000000	37
90.9130000000	39
90.9430000000	29
90.9730000000	33
91.0030000000	34
91.0330000000	43
91.0630000000	43
91.0930000000	48
91.1230000000	45
91.1530000000	36
91.1830000000	31
91.2130000000	60
91.2430000000	38
91.2730000000	35
91.3030000000	32
91.3330000000	34
91.3630000000	39
91.3930000000	38
91.4230000000	35
91.4530000000	41
91.4830000000	48
91.5130000000	30
91.5430000000	30
91.5730000000	40
91.6030000000	47
91.6330000000	47
91.6630000000	37
91.6930000000	32
91.7230000000	31
91.7530000000	32
91.7830000000	36
91.8130000000	46
91.8430000000	32
91.8730000000	38
91.9030000000	37
91.9330000000	39
91.9630000000	37
91.9930000000	40
92.0230000000	31
92.0530000000	40
92.0830000000	46
92.1130000000	32
92.1430000000	32
92.1730000000	47
92.2030000000	34
92.2330000000	43
92.2630000000	30
92.2930000000	44
92.3230000000	45
92.3530000000	32
92.3830000000	31
92.4130000000	39
92.4430000000	34
92.4730000000	36
92.5030000000	43
92.5330000000	32
92.5630000000	42
92.5930000000	28
92.6230000000	43
92.6530000000	29
92.6830000000	43
92.7130000000	29
92.7430000000	28
92.7730000000	39
92.8030000000	34
92.8330000000	40
92.8630000000	33
92.8930000000	24
92.9230000000	49
92.9530000000	36
92.9830000000	38
93.0130000000	39
93.0430000000	42
93.0730000000	47
93.1030000000	39
93.1330000000	33
93.1630000000	38
93.1930000000	40
93.2230000000	32
93.2530000000	34
93.2830000000	42
93.3130000000	35
93.3430000000	35
93.3730000000	44
93.4030000000	41
93.4330000000	32
93.4630000000	34
93.4930000000	32
93.5230000000	38
93.5530000000	32
93.5830000000	38
93.6130000000	52
93.6430000000	47
93.6730000000	32
93.7030000000	29
93.7330000000	43
93.7630000000	46
93.7930000000	43
93.8230000000	46
93.8530000000	38
93.8830000000	52
93.9130000000	39
93.9430000000	44
93.9730000000	33
94.0030000000	46
94.0330000000	43
94.0630000000	39
94.0930000000	41
94.1230000000	52
94.1530000000	43
94.1830000000	37
94.2130000000	46
94.2430000000	46
94.2730000000	33
94.3030000000	44
94.3330000000	47
94.3630000000	32
94.3930000000	37
94.4230000000	31
94.4530000000	46
94.4830000000	45
94.5130000000	35
94.5430000000	37
94.5730000000	48
94.6030000000	48
94.6330000000	34
94.6630000000	36
94.6930000000	45
94.7230000000	39
94.7530000000	35
94.7830000000	42
94.8130000000	46
94.8430000000	31
94.8730000000	34
94.9030000000	36
94.9330000000	37
94.9630000000	36
94.9930000000	31
95.0230000000	38
95.0530000000	43
95.0830000000	39
95.1130000000	37
95.1430000000	33
95.1730000000	41
95.2030000000	34
95.2330000000	43
95.2630000000	35
95.2930000000	35
95.3230000000	33
95.3530000000	41
95.3830000000	30
95.4130000000	31
95.4430000000	43
95.4730000000	44
95.5030000000	37
95.5330000000	34
95.5630000000	36
95.5930000000	43
95.6230000000	33
95.6530000000	36
95.6830000000	37
95.7130000000	41
95.7430000000	38
95.7730000000	27
95.8030000000	37
95.8330000000	34
95.8630000000	44
95.8930000000	37
95.9230000000	38
95.9530000000	34
95.9830000000	37
96.0130000000	41
96.0430000000	34
96.0730000000	32
96.1030000000	36
96.1330000000	38
96.1630000000	42
96.1930000000	36
96.2230000000	32
96.2530000000	42
96.2830000000	39
96.3130000000	32
96.3430000000	36
96.3730000000	40
96.4030000000	41
96.4330000000	43
96.4630000000	40
96.4930000000	27
96.5230000000	46
96.5530000000	47
96.5830000000	47
96.6130000000	48
96.6430000000	33
96.6730000000	27
96.7030000000	33
96.7330000000	31
96.7630000000	30
96.7930000000	37
96.8230000000	38
96.8530000000	40
96.8830000000	44
96.9130000000	49
96.9430000000	48
96.9730000000	41
97.0030000000	42
97.0330000000	38
97.0630000000	36
97.0930000000	26
97.1230000000	40
97.1530000000	44
97.1830000000	34
97.2130000000	44
97.2430000000	34
97.2730000000	33
97.3030000000	44
97.3330000000	40
97.3630000000	36
97.3930000000	46
97.4230000000	45
97.4530000000	34
97.4830000000	37
97.5130000000	41
97.5430000000	38
97.5730000000	35
97.6030000000	27
97.6330000000	43
97.6630000000	41
97.6930000000	43
97.7230000000	43
97.7530000000	28
97.7830000000	37
97.8130000000	34
97.8430000000	22
97.8730000000	36
97.9030000000	43
97.9330000000	34
97.9630000000	37
97.9930000000	23
98.0230000000	41
98.0530000000	39
98.0830000000	34
98.1130000000	41
98.1430000000	36
98.1730000000	36
98.2030000000	41
98.2330000000	31
98.2630000000	45
98.2930000000	43
98.3230000000	36
98.3530000000	31
98.3830000000	32
98.4130000000	33
98.4430000000	48
98.4730000000	40
98.5030000000	27
98.5330000000	31
98.5630000000	47
98.5930000000	42
98.6230000000	36
98.6530000000	45
98.6830000000	42
98.7130000000	43
98.7430000000	39
98.7730000000	37
98.8030000000	41
98.8330000000	39
98.8630000000	42
98.8930000000	38
98.9230000000	32
98.9530000000	33
98.9830000000	41
99.0130000000	42
99.0430000000	39
99.0730000000	35
99.1030000000	28
99.1330000000	50
99.1630000000	42
99.1930000000	39
99.2230000000	51
99.2530000000	27
99.2830000000	31
99.3130000000	44
99.3430000000	32
99.3730000000	42
99.4030000000	50
99.4330000000	34
99.4630000000	34
99.4930000000	30
99.5230000000	41
99.5530000000	46
99.5830000000	38
99.6130000000	33
99.6430000000	33
99.6730000000	37
99.7030000000	34
99.7330000000	36
99.7630000000	34
99.7930000000	40
99.8230000000	32
99.8530000000	34
99.8830000000	37
99.9130000000	27
99.9430000000	21
99.9730000000	21
100.0030000000	28
100.0330000000	41
100.0630000000	41
100.0930000000	29
100.1230000000	32
100.1530000000	32
100.1830000000	35
100.2130000000	50
100.2430000000	47
100.2730000000	40
100.3030000000	34
100.3330000000	40
100.3630000000	25
100.3930000000	33
100.4230000000	38
100.4530000000	21
100.4830000000	36
100.5130000000	28
100.5430000000	28
100.5730000000	39
100.6030000000	20
100.6330000000	31
100.6630000000	33
100.6930000000	41
100.7230000000	42
100.7530000000	44
100.7830000000	31
100.8130000000	26
100.8430000000	28
100.8730000000	34
100.9030000000	25
100.9330000000	44
100.9630000000	31
100.9930000000	33
101.0230000000	33
101.0530000000	35
101.0830000000	34
101.1130000000	29
101.1430000000	31
101.1730000000	34
101.2030000000	35
101.2330000000	34
101.2630000000	39
101.2930000000	33
101.3230000000	39
101.3530000000	42
101.3830000000	39
101.4130000000	33
101.4430000000	37
101.4730000000	41
101.5030000000	34
101.5330000000	34
101.5630000000	29
101.5930000000	34
101.6230000000	38
101.6530000000	29
101.6830000000	30
101.7130000000	35
101.7430000000	31
101.7730000000	34
101.8030000000	36
101.8330000000	34
101.8630000000	41
101.8930000000	35
101.9230000000	35
101.9530000000	33
101.9830000000	35
102.0130000000	38
102.0430000000	40
102.0730000000	29
102.1030000000	35
102.1330000000	30
102.1630000000	26
102.1930000000	36
102.2230000000	38
102.2530000000	32
102.2830000000	46
102.3130000000	42
102.3430000000	30
102.3730000000	30
102.4030000000	46
102.4330000000	43
102.4630000000	37
102.4930000000	34
102.5230000000	39
102.5530000000	37
102.5830000000	34
102.6130000000	30
102.6430000000	36
102.6730000000	31
102.7030000000	31
102.7330000000	36
102.7630000000	34
102.7930000000	29
102.8230000000	38
102.8530000000	38
102.8830000000	34
102.9130000000	31
102.9430000000	36
102.9730000000	34
103.0030000000	37
103.0330000000	41
103.0630000000	39
103.0930000000	33
103.1230000000	42
103.1530000000	43
103.1830000000	37
103.2130000000	40
103.2430000000	41
103.2730000000	37
103.3030000000	35
103.3330000000	37
103.3630000000	31
103.3930000000	28
103.4230000000	34
103.4530000000	46
103.4830000000	33
103.5130000000	38
103.5430000000	39
103.5730000000	39
103.6030000000	42
103.6330000000	34
103.6630000000	30
103.6930000000	36
103.7230000000	34
103.7530000000	34
103.7830000000	42
103.8130000000	35
103.8430000000	37
103.8730000000	53
103.9030000000	35
103.9330000000	27
103.9630000000	30
103.9930000000	39
104.0230000000	36
104.0530000000	38
104.0830000000	25
104.1130000000	36
104.1430000000	36
104.1730000000	40
104.2030000000	30
104.2330000000	36
104.2630000000	45
104.2930000000	34
104.3230000000	33
104.3530000000	35
104.3830000000	42
104.4130000000	32
104.4430000000	39
104.4730000000	40
104.5030000000	35
104.5330000000	45
104.5630000000	44
104.5930000000	41
104.6230000000	52
104.6530000000	51
104.6830000000	34
104.7130000000	38
104.7430000000	40
104.7730000000	37
104.8030000000	45
104.8330000000	33
104.8630000000	39
104.8930000000	40
104.9230000000	43
104.9530000000	40
104.9830000000	35
105.0130000000	40
105.0430000000	40
105.0730000000	41
105.1030000000	31
105.1330000000	26
105.1630000000	27
105.1930000000	37
105.2230000000	55
105.2530000000	24
105.2830000000	38
105.3130000000	31
105.3430000000	33
105.3730000000	41
105.4030000000	40
105.4330000000	38
105.4630000000	32
105.4930000000	44
105.5230000000	39
105.5530000000	39
105.5830000000	44
105.6130000000	40
105.6430000000	41
105.6730000000	34
105.7030000000	46
105.7330000000	39
105.7630000000	41
105.7930000000	33
105.8230000000	43
105.8530000000	38
105.8830000000	41
105.9130000000	54
105.9430000000	32
105.9730000000	42
106.0030000000	28
106.0330000000	47
106.0630000000	26
106.0930000000	37
106.1230000000	35
106.1530000000	38
106.1830000000	43
106.2130000000	38
106.2430000000	27
106.2730000000	31
106.3030000000	32
106.3330000000	33
106.3630000000	41
106.3930000000	33
106.4230000000	34
106.4530000000	26
106.4830000000	32
106.5130000000	44
106.5430000000	25
106.5730000000	28
106.6030000000	39
106.6330000000	35
106.6630000000	41
106.6930000000	42
106.7230000000	47
106.7530000000	33
106.7830000000	42
106.8130000000	46
106.8430000000	46
106.8730000000	50
106.9030000000	50
106.9330000000	45
106.9630000000	43
106.9930000000	32
107.0230000000	31
107.0530000000	39
107.0830000000	41
107.1130000000	26
107.1430000000	44
107.1730000000	33
107.2030000000	38
107.2330000000	43
107.2630000000	39
107.2930000000	44
107.3230000000	43
107.3530000000	33
107.3830000000	38
107.4130000000	41
107.4430000000	37
107.4730000000	40
107.5030000000	41
107.5330000000	41
107.5630000000	41
107.5930000000	35
107.6230000000	34
107.6530000000	37
107.6830000000	40
107.7130000000	39
107.7430000000	36
107.7730000000	45
107.8030000000	45
107.8330000000	37
107.8630000000	38
107.8930000000	48
107.9230000000	49
107.9530000000	39
107.9830000000	39
108.0130000000	40
108.0430000000	41
108.0730000000	43
108.1030000000	47
108.1330000000	35
108.1630000000	40
108.1930000000	42
108.2230000000	44
108.2530000000	43
108.2830000000	32
108.3130000000	37
108.3430000000	33
108.3730000000	41
108.4030000000	34
108.4330000000	37
108.4630000000	36
108.4930000000	41
108.5230000000	40
108.5530000000	37
108.5830000000	37
108.6130000000	33
108.6430000000	34
108.6730000000	45
108.7030000000	37
108.7330000000	44
108.7630000000	38
108.7930000000	38
108.8230000000	49
108.8530000000	36
108.8830000000	31
108.9130000000	27
108.9430000000	37
108.9730000000	44
109.0030000000	43
109.0330000000	26
109.0630000000	35
109.0930000000	26
109.1230000000	41
109.1530000000	46
109.1830000000	36
109.2130000000	38
109.2430000000	41
109.2730000000	36
109.3030000000	33
109.3330000000	44
109.3630000000	50
109.3930000000	25
109.4230000000	40
109.4530000000	47
109.4830000000	51
109.5130000000	40
109.5430000000	44
109.5730000000	30
109.6030000000	48
109.6330000000	48
109.6630000000	30
109.6930000000	34
109.7230000000	45
109.7530000000	32
109.7830000000	35
109.8130000000	43
109.8430000000	51
109.8730000000	40
109.9030000000	36
109.9330000000	36
109.9630000000	37
109.9930000000	33
110.0230000000	39
110.0530000000	33
110.0830000000	30
110.1130000000	41
110.1430000000	41
110.1730000000	33
110.2030000000	37
110.2330000000	47
110.2630000000	52
110.2930000000	38
110.3230000000	40
110.3530000000	43
110.3830000000	43
110.4130000000	43
110.4430000000	35
110.4730000000	39
110.5030000000	44
110.5330000000	44
110.5630000000	39
110.5930000000	37
110.6230000000	41
110.6530000000	30
110.6830000000	40
110.7130000000	39
110.7430000000	36
110.7730000000	36
110.8030000000	39
110.8330000000	45
110.8630000000	40
110.8930000000	31
110.9230000000	37
110.9530000000	41
110.9830000000	45
111.0130000000	49
111.0430000000	40
111.0730000000	40
111.1030000000	45
111.1330000000	36
111.1630000000	46
111.1930000000	48
111.2230000000	35
111.2530000000	42
111.2830000000	39
111.3130000000	48
111.3430000000	42
111.3730000000	43
111.4030000000	29
111.4330000000	38
111.4630000000	38
111.4930000000	47
111.5230000000	47
111.5530000000	48
111.5830000000	41
111.6130000000	44
111.6430000000	43
111.6730000000	42
111.7030000000	38
111.7330000000	35
111.7630000000	41
111.7930000000	39
111.8230000000	47
111.8530000000	35
111.8830000000	47
111.9130000000	39
111.9430000000	47
111.9730000000	40
112.0030000000	46
112.0330000000	37
112.0630000000	47
112.0930000000	38
112.1230000000	36
112.1530000000	34
112.1830000000	36
112.2130000000	51
112.2430000000	50
112.2730000000	43
112.3030000000	45
112.3330000000	40
112.3630000000	46
112.3930000000	31
112.4230000000	44
112.4530000000	41
112.4830000000	45
112.5130000000	40
112.5430000000	39
112.5730000000	39
112.6030000000	36
112.6330000000	39
112.6630000000	31
112.6930000000	40
112.7230000000	40
112.7530000000	31
112.7830000000	37
112.8130000000	43
112.8430000000	34
112.8730000000	45
112.9030000000	44
112.9330000000	49
112.9630000000	53
112.9930000000	62
113.0230000000	49
113.0530000000	71
113.0830000000	49
113.1130000000	67
113.1430000000	66
113.1730000000	74
113.2030000000	76
113.2330000000	51
113.2630000000	65
113.2930000000	67
113.3230000000	60
113.3530000000	51
113.3830000000	52
113.4130000000	60
113.4430000000	58
113.4730000000	50
113.5030000000	61
113.5330000000	64
113.5630000000	67
113.5930000000	42
113.6230000000	54
113.6530000000	56
113.6830000000	42
113.7130000000	48
113.7430000000	33
113.7730000000	45
113.8030000000	36
113.8330000000	33
113.8630000000	41
113.8930000000	41
113.9230000000	35
113.9530000000	44
113.9830000000	36
114.0130000000	39
114.0430000000	35
114.0730000000	28
114.1030000000	47
114.1330000000	39
114.1630000000	40
114.1930000000	39
114.2230000000	48
114.2530000000	47
114.2830000000	44
114.3130000000	49
114.3430000000	39
114.3730000000	35
114.4030000000	37
114.4330000000	36
114.4630000000	1
114.4930000000	1
114.5230000000	1
114.5530000000	1
114.5830000000	1
