0.3130000000	1
0.3430000000	1
0.3730000000	1
0.4030000000	1
0.4330000000	1
0.4630000000	1
0.4930000000	1
0.5230000000	1
0.5530000000	1
0.5830000000	1
0.6130000000	1
0.6430000000	1
0.6730000000	1
0.7030000000	2
0.7330000000	1
0.7630000000	1
0.7930000000	1
0.8230000000	1
0.8530000000	2
0.8830000000	1
0.9130000000	1
0.9430000000	1
0.9730000000	1
1.0030000000	1
1.0330000000	1
1.0630000000	2
1.0930000000	2
1.1230000000	2
1.1530000000	1
1.1830000000	1
1.2130000000	1
1.2430000000	1
1.2730000000	1
1.3030000000	1
1.3330000000	1
1.3630000000	1
1.3930000000	1
1.4230000000	1
1.4530000000	1
1.4830000000	1
1.5130000000	1
1.5430000000	1
1.5730000000	2
1.6030000000	2
1.6330000000	2
1.6630000000	1
1.6930000000	1
1.7230000000	2
1.7530000000	2
1.7830000000	1
1.8130000000	1
1.8430000000	1
1.8730000000	1
1.9030000000	1
1.9330000000	2
1.9630000000	1
1.9930000000	1
2.0230000000	1
2.0530000000	1
2.0830000000	2
2.1130000000	1
2.1430000000	2
2.1730000000	1
2.2030000000	1
2.2330000000	1
2.2630000000	3
2.2930000000	3
2.3230000000	1
2.3530000000	1
2.3830000000	2
2.4130000000	1
2.4430000000	1
2.4730000000	2
2.5030000000	2
2.5330000000	1
2.5630000000	1
2.5930000000	1
2.6230000000	1
2.6530000000	1
2.6830000000	2
2.7130000000	3
2.7430000000	1
2.7730000000	2
2.8030000000	1
2.8330000000	1
2.8630000000	3
2.8930000000	4
2.9230000000	2
2.9530000000	2
2.9830000000	1
3.0130000000	2
3.0430000000	1
3.0730000000	2
3.1030000000	3
3.1330000000	2
3.1630000000	2
3.1930000000	2
3.2230000000	1
3.2530000000	1
3.2830000000	1
3.3130000000	3
3.3430000000	1
3.3730000000	3
3.4030000000	3
3.4330000000	1
3.4630000000	2
3.4930000000	2
3.5230000000	2
3.5530000000	3
3.5830000000	1
3.6130000000	2
3.6430000000	1
3.6730000000	1
3.7030000000	2
3.7330000000	2
3.7630000000	1
3.7930000000	4
3.8230000000	1
3.8530000000	1
3.8830000000	2
3.9130000000	4
3.9430000000	3
3.9730000000	4
4.0030000000	3
4.0330000000	3
4.0630000000	1
4.0930000000	2
4.1230000000	4
4.1530000000	2
4.1830000000	1
4.2130000000	5
4.2430000000	3
4.2730000000	6
4.3030000000	3
4.3330000000	3
4.3630000000	3
4.3930000000	6
4.4230000000	6
4.4530000000	11
4.4830000000	18
4.5130000000	27
4.5430000000	37
4.5730000000	51
4.6030000000	89
4.6330000000	102
4.6630000000	109
4.6930000000	145
4.7230000000	116
4.7530000000	127
4.7830000000	148
4.8130000000	145
4.8430000000	137
4.8730000000	142
4.9030000000	133
4.9330000000	125
4.9630000000	132
4.9930000000	147
5.0230000000	139
5.0530000000	132
5.0830000000	141
5.1130000000	160
5.1430000000	136
5.1730000000	148
5.2030000000	143
5.2330000000	175
5.2630000000	127
5.2930000000	165
5.3230000000	159
5.3530000000	144
5.3830000000	154
5.4130000000	148
5.4430000000	137
5.4730000000	147
5.5030000000	144
5.5330000000	148
5.5630000000	156
5.5930000000	129
5.6230000000	152
5.6530000000	146
5.6830000000	160
5.7130000000	149
5.7430000000	162
5.7730000000	120
5.8030000000	123
5.8330000000	159
5.8630000000	150
5.8930000000	130
5.9230000000	163
5.9530000000	143
5.9830000000	150
6.0130000000	129
6.0430000000	133
6.0730000000	156
6.1030000000	154
6.1330000000	149
6.1630000000	159
6.1930000000	159
6.2230000000	166
6.2530000000	146
6.2830000000	146
6.3130000000	144
6.3430000000	134
6.3730000000	139
6.4030000000	138
6.4330000000	144
6.4630000000	141
6.4930000000	150
6.5230000000	154
6.5530000000	166
6.5830000000	138
6.6130000000	144
6.6430000000	142
6.6730000000	151
6.7030000000	149
6.7330000000	132
6.7630000000	145
6.7930000000	164
6.8230000000	167
6.8530000000	148
6.8830000000	153
6.9130000000	141
6.9430000000	138
6.9730000000	154
7.0030000000	145
7.0330000000	149
7.0630000000	134
7.0930000000	122
7.1230000000	140
7.1530000000	161
7.1830000000	152
7.2130000000	147
7.2430000000	136
7.2730000000	125
7.3030000000	131
7.3330000000	145
7.3630000000	140
7.3930000000	146
7.4230000000	158
7.4530000000	142
7.4830000000	125
7.5130000000	161
7.5430000000	158
7.5730000000	170
7.6030000000	156
7.6330000000	138
7.6630000000	129
7.6930000000	146
7.7230000000	150
7.7530000000	132
7.7830000000	146
7.8130000000	154
7.8430000000	147
7.8730000000	144
7.9030000000	147
7.9330000000	159
7.9630000000	159
7.9930000000	144
8.0230000000	149
8.0530000000	124
8.0830000000	146
8.1130000000	151
8.1430000000	151
8.1730000000	126
8.2030000000	146
8.2330000000	176
8.2630000000	158
8.2930000000	163
8.3230000000	129
8.3530000000	150
8.3830000000	147
8.4130000000	161
8.4430000000	161
8.4730000000	147
8.5030000000	145
8.5330000000	131
8.5630000000	142
8.5930000000	147
8.6230000000	151
8.6530000000	142
8.6830000000	135
8.7130000000	138
8.7430000000	151
8.7730000000	128
8.8030000000	164
8.8330000000	153
8.8630000000	132
8.8930000000	151
8.9230000000	129
8.9530000000	142
8.9830000000	166
9.0130000000	163
9.0430000000	155
9.0730000000	148
9.1030000000	136
9.1330000000	159
9.1630000000	149
9.1930000000	146
9.2230000000	146
9.2530000000	143
9.2830000000	156
9.3130000000	144
9.3430000000	164
9.3730000000	134
9.4030000000	150
9.4330000000	147
9.4630000000	133
9.4930000000	153
9.5230000000	145
9.5530000000	138
9.5830000000	130
9.6130000000	155
9.6430000000	163
9.6730000000	133
9.7030000000	147
9.7330000000	133
9.7630000000	157
9.7930000000	146
9.8230000000	150
9.8530000000	134
9.8830000000	128
9.9130000000	145
9.9430000000	139
9.9730000000	152
10.0030000000	131
10.0330000000	140
10.0630000000	131
10.0930000000	132
10.1230000000	152
10.1530000000	169
10.1830000000	155
10.2130000000	145
10.2430000000	126
10.2730000000	111
10.3030000000	136
10.3330000000	131
10.3630000000	135
10.3930000000	148
10.4230000000	138
10.4530000000	157
10.4830000000	145
10.5130000000	142
10.5430000000	158
10.5730000000	154
10.6030000000	139
10.6330000000	130
10.6630000000	163
10.6930000000	151
10.7230000000	137
10.7530000000	146
10.7830000000	147
10.8130000000	148
10.8430000000	145
10.8730000000	169
10.9030000000	148
10.9330000000	156
10.9630000000	156
10.9930000000	132
11.0230000000	147
11.0530000000	157
11.0830000000	146
11.1130000000	161
11.1430000000	147
11.1730000000	129
11.2030000000	138
11.2330000000	155
11.2630000000	164
11.2930000000	144
11.3230000000	172
11.3530000000	148
11.3830000000	127
11.4130000000	163
11.4430000000	156
11.4730000000	135
11.5030000000	149
11.5330000000	140
11.5630000000	133
11.5930000000	139
11.6230000000	151
11.6530000000	139
11.6830000000	155
11.7130000000	147
11.7430000000	126
11.7730000000	134
11.8030000000	145
11.8330000000	150
11.8630000000	144
11.8930000000	152
11.9230000000	144
11.9530000000	148
11.9830000000	143
12.0130000000	136
12.0430000000	144
12.0730000000	146
12.1030000000	145
12.1330000000	146
12.1630000000	144
12.1930000000	145
12.2230000000	131
12.2530000000	146
12.2830000000	141
12.3130000000	139
12.3430000000	143
12.3730000000	150
12.4030000000	168
12.4330000000	139
12.4630000000	141
12.4930000000	131
12.5230000000	134
12.5530000000	145
12.5830000000	144
12.6130000000	141
12.6430000000	150
12.6730000000	148
12.7030000000	139
12.7330000000	159
12.7630000000	147
12.7930000000	151
12.8230000000	156
12.8530000000	135
12.8830000000	140
12.9130000000	154
12.9430000000	150
12.9730000000	141
13.0030000000	138
13.0330000000	139
13.0630000000	132
13.0930000000	118
13.1230000000	133
13.1530000000	155
13.1830000000	140
13.2130000000	143
13.2430000000	143
13.2730000000	147
13.3030000000	152
13.3330000000	143
13.3630000000	150
13.3930000000	131
13.4230000000	164
13.4530000000	143
13.4830000000	143
13.5130000000	139
13.5430000000	129
13.5730000000	123
13.6030000000	155
13.6330000000	141
13.6630000000	143
13.6930000000	152
13.7230000000	129
13.7530000000	150
13.7830000000	142
13.8130000000	138
13.8430000000	139
13.8730000000	139
13.9030000000	134
13.9330000000	119
13.9630000000	143
13.9930000000	145
14.0230000000	166
14.0530000000	156
14.0830000000	142
14.1130000000	137
14.1430000000	136
14.1730000000	137
14.2030000000	121
14.2330000000	120
14.2630000000	168
14.2930000000	163
14.3230000000	141
14.3530000000	152
14.3830000000	151
14.4130000000	119
14.4430000000	138
14.4730000000	157
14.5030000000	135
14.5330000000	156
14.5630000000	156
14.5930000000	145
14.6230000000	164
14.6530000000	153
14.6830000000	124
14.7130000000	151
14.7430000000	162
14.7730000000	128
14.8030000000	149
14.8330000000	170
14.8630000000	133
14.8930000000	173
14.9230000000	154
14.9530000000	157
14.9830000000	165
15.0130000000	154
15.0430000000	140
15.0730000000	150
15.1030000000	159
15.1330000000	138
15.1630000000	153
15.1930000000	136
15.2230000000	142
15.2530000000	160
15.2830000000	147
15.3130000000	175
15.3430000000	151
15.3730000000	160
15.4030000000	156
15.4330000000	141
15.4630000000	160
15.4930000000	152
15.5230000000	167
15.5530000000	144
15.5830000000	167
15.6130000000	147
15.6430000000	147
15.6730000000	171
15.7030000000	160
15.7330000000	155
15.7630000000	167
15.7930000000	141
15.8230000000	147
15.8530000000	137
15.8830000000	135
15.9130000000	142
15.9430000000	136
15.9730000000	140
16.0030000000	141
16.0330000000	145
16.0630000000	141
16.0930000000	136
16.1230000000	141
16.1530000000	145
16.1830000000	131
16.2130000000	126
16.2430000000	143
16.2730000000	126
16.3030000000	130
16.3330000000	140
16.3630000000	147
16.3930000000	143
16.4230000000	139
16.4530000000	137
16.4830000000	168
16.5130000000	138
16.5430000000	137
16.5730000000	143
16.6030000000	137
16.6330000000	141
16.6630000000	155
16.6930000000	144
16.7230000000	130
16.7530000000	133
16.7830000000	150
16.8130000000	144
16.8430000000	162
16.8730000000	144
16.9030000000	139
16.9330000000	131
16.9630000000	131
16.9930000000	155
17.0230000000	141
17.0530000000	145
17.0830000000	159
17.1130000000	138
17.1430000000	130
17.1730000000	143
17.2030000000	140
17.2330000000	143
17.2630000000	156
17.2930000000	155
17.3230000000	159
17.3530000000	148
17.3830000000	157
17.4130000000	133
17.4430000000	129
17.4730000000	166
17.5030000000	148
17.5330000000	132
17.5630000000	147
17.5930000000	154
17.6230000000	138
17.6530000000	140
17.6830000000	143
17.7130000000	160
17.7430000000	150
17.7730000000	155
17.8030000000	160
17.8330000000	143
17.8630000000	140
17.8930000000	143
17.9230000000	147
17.9530000000	139
17.9830000000	131
18.0130000000	137
18.0430000000	144
18.0730000000	134
18.1030000000	125
18.1330000000	141
18.1630000000	140
18.1930000000	142
18.2230000000	147
18.2530000000	150
18.2830000000	144
18.3130000000	136
18.3430000000	146
18.3730000000	135
18.4030000000	144
18.4330000000	145
18.4630000000	158
18.4930000000	134
18.5230000000	144
18.5530000000	152
18.5830000000	140
18.6130000000	142
18.6430000000	151
18.6730000000	162
18.7030000000	164
18.7330000000	126
18.7630000000	136
18.7930000000	151
18.8230000000	140
18.8530000000	164
18.8830000000	148
18.9130000000	160
18.9430000000	137
18.9730000000	145
19.0030000000	146
19.0330000000	168
19.0630000000	156
19.0930000000	145
19.1230000000	153
19.1530000000	151
19.1830000000	134
19.2130000000	133
19.2430000000	174
19.2730000000	162
19.3030000000	133
19.3330000000	151
19.3630000000	158
19.3930000000	166
19.4230000000	157
19.4530000000	147
19.4830000000	159
19.5130000000	154
19.5430000000	133
19.5730000000	139
19.6030000000	137
19.6330000000	141
19.6630000000	149
19.6930000000	160
19.7230000000	152
19.7530000000	134
19.7830000000	153
19.8130000000	154
19.8430000000	140
19.8730000000	164
19.9030000000	141
19.9330000000	155
19.9630000000	150
19.9930000000	140
20.0230000000	154
20.0530000000	160
20.0830000000	145
20.1130000000	151
20.1430000000	154
20.1730000000	174
20.2030000000	145
20.2330000000	147
20.2630000000	149
20.2930000000	153
20.3230000000	173
20.3530000000	154
20.3830000000	161
20.4130000000	143
20.4430000000	173
20.4730000000	147
20.5030000000	149
20.5330000000	139
20.5630000000	156
20.5930000000	154
20.6230000000	183
20.6530000000	227
20.6830000000	285
20.7130000000	300
20.7430000000	381
20.7730000000	503
20.8030000000	648
20.8330000000	863
20.8630000000	958
20.8930000000	891
20.9230000000	729
20.9530000000	480
20.9830000000	375
21.0130000000	285
21.0430000000	219
21.0730000000	204
21.1030000000	170
21.1330000000	173
21.1630000000	191
21.1930000000	166
21.2230000000	173
21.2530000000	155
21.2830000000	160
21.3130000000	156
21.3430000000	148
21.3730000000	174
21.4030000000	162
21.4330000000	176
21.4630000000	143
21.4930000000	149
21.5230000000	155
21.5530000000	144
21.5830000000	137
21.6130000000	127
21.6430000000	130
21.6730000000	167
21.7030000000	150
21.7330000000	151
21.7630000000	144
21.7930000000	156
21.8230000000	157
21.8530000000	144
21.8830000000	155
21.9130000000	150
21.9430000000	152
21.9730000000	158
22.0030000000	155
22.0330000000	170
22.0630000000	158
22.0930000000	165
22.1230000000	161
22.1530000000	156
22.1830000000	154
22.2130000000	132
22.2430000000	150
22.2730000000	172
22.3030000000	163
22.3330000000	175
22.3630000000	166
22.3930000000	147
22.4230000000	152
22.4530000000	163
22.4830000000	159
22.5130000000	160
22.5430000000	156
22.5730000000	153
22.6030000000	148
22.6330000000	137
22.6630000000	154
22.6930000000	172
22.7230000000	166
22.7530000000	147
22.7830000000	146
22.8130000000	167
22.8430000000	165
22.8730000000	149
22.9030000000	153
22.9330000000	185
22.9630000000	167
22.9930000000	161
23.0230000000	163
23.0530000000	159
23.0830000000	149
23.1130000000	156
23.1430000000	147
23.1730000000	177
23.2030000000	165
23.2330000000	178
23.2630000000	142
23.2930000000	148
23.3230000000	156
23.3530000000	156
23.3830000000	173
23.4130000000	163
23.4430000000	169
23.4730000000	172
23.5030000000	149
23.5330000000	144
23.5630000000	161
23.5930000000	166
23.6230000000	141
23.6530000000	162
23.6830000000	160
23.7130000000	164
23.7430000000	173
23.7730000000	155
23.8030000000	164
23.8330000000	152
23.8630000000	151
23.8930000000	155
23.9230000000	163
23.9530000000	190
23.9830000000	172
24.0130000000	188
24.0430000000	179
24.0730000000	172
24.1030000000	167
24.1330000000	167
24.1630000000	177
24.1930000000	174
24.2230000000	168
24.2530000000	157
24.2830000000	174
24.3130000000	132
24.3430000000	178
24.3730000000	172
24.4030000000	182
24.4330000000	149
24.4630000000	171
24.4930000000	173
24.5230000000	176
24.5530000000	160
24.5830000000	158
24.6130000000	167
24.6430000000	169
24.6730000000	143
24.7030000000	173
24.7330000000	161
24.7630000000	156
24.7930000000	161
24.8230000000	160
24.8530000000	138
24.8830000000	152
24.9130000000	167
24.9430000000	173
24.9730000000	162
25.0030000000	184
25.0330000000	173
25.0630000000	170
25.0930000000	157
25.1230000000	165
25.1530000000	155
25.1830000000	169
25.2130000000	148
25.2430000000	155
25.2730000000	174
25.3030000000	162
25.3330000000	167
25.3630000000	161
25.3930000000	196
25.4230000000	167
25.4530000000	144
25.4830000000	159
25.5130000000	152
25.5430000000	167
25.5730000000	168
25.6030000000	179
25.6330000000	176
25.6630000000	168
25.6930000000	182
25.7230000000	171
25.7530000000	161
25.7830000000	176
25.8130000000	217
25.8430000000	287
25.8730000000	322
25.9030000000	437
25.9330000000	596
25.9630000000	823
25.9930000000	1046
26.0230000000	1384
26.0530000000	1460
26.0830000000	1263
26.1130000000	960
26.1430000000	695
26.1730000000	477
26.2030000000	374
26.2330000000	272
26.2630000000	214
26.2930000000	205
26.3230000000	195
26.3530000000	161
26.3830000000	146
26.4130000000	165
26.4430000000	166
26.4730000000	171
26.5030000000	177
26.5330000000	169
26.5630000000	164
26.5930000000	160
26.6230000000	153
26.6530000000	132
26.6830000000	124
26.7130000000	164
26.7430000000	161
26.7730000000	162
26.8030000000	150
26.8330000000	149
26.8630000000	147
26.8930000000	156
26.9230000000	176
26.9530000000	152
26.9830000000	134
27.0130000000	148
27.0430000000	151
27.0730000000	132
27.1030000000	132
27.1330000000	146
27.1630000000	155
27.1930000000	155
27.2230000000	142
27.2530000000	142
27.2830000000	143
27.3130000000	133
27.3430000000	140
27.3730000000	158
27.4030000000	169
27.4330000000	145
27.4630000000	136
27.4930000000	142
27.5230000000	137
27.5530000000	139
27.5830000000	130
27.6130000000	147
27.6430000000	136
27.6730000000	146
27.7030000000	142
27.7330000000	145
27.7630000000	136
27.7930000000	144
27.8230000000	169
27.8530000000	136
27.8830000000	145
27.9130000000	164
27.9430000000	146
27.9730000000	156
28.0030000000	174
28.0330000000	164
28.0630000000	159
28.0930000000	173
28.1230000000	159
28.1530000000	203
28.1830000000	237
28.2130000000	263
28.2430000000	240
28.2730000000	273
28.3030000000	223
28.3330000000	197
28.3630000000	177
28.3930000000	154
28.4230000000	163
28.4530000000	152
28.4830000000	156
28.5130000000	142
28.5430000000	145
28.5730000000	151
28.6030000000	140
28.6330000000	122
28.6630000000	137
28.6930000000	106
28.7230000000	142
28.7530000000	142
28.7830000000	113
28.8130000000	115
28.8430000000	112
28.8730000000	131
28.9030000000	125
28.9330000000	126
28.9630000000	128
28.9930000000	142
29.0230000000	126
29.0530000000	111
29.0830000000	120
29.1130000000	116
29.1430000000	145
29.1730000000	129
29.2030000000	125
29.2330000000	131
29.2630000000	131
29.2930000000	122
29.3230000000	126
29.3530000000	112
29.3830000000	116
29.4130000000	111
29.4430000000	114
29.4730000000	132
29.5030000000	117
29.5330000000	149
29.5630000000	116
29.5930000000	125
29.6230000000	116
29.6530000000	126
29.6830000000	120
29.7130000000	120
29.7430000000	127
29.7730000000	125
29.8030000000	110
29.8330000000	123
29.8630000000	118
29.8930000000	123
29.9230000000	96
29.9530000000	98
29.9830000000	129
30.0130000000	126
30.0430000000	116
30.0730000000	97
30.1030000000	126
30.1330000000	124
30.1630000000	125
30.1930000000	121
30.2230000000	129
30.2530000000	130
30.2830000000	134
30.3130000000	130
30.3430000000	123
30.3730000000	111
30.4030000000	116
30.4330000000	121
30.4630000000	125
30.4930000000	126
30.5230000000	103
30.5530000000	137
30.5830000000	102
30.6130000000	106
30.6430000000	107
30.6730000000	90
30.7030000000	125
30.7330000000	114
30.7630000000	108
30.7930000000	126
30.8230000000	102
30.8530000000	120
30.8830000000	120
30.9130000000	104
30.9430000000	116
30.9730000000	125
31.0030000000	108
31.0330000000	108
31.0630000000	111
31.0930000000	113
31.1230000000	125
31.1530000000	133
31.1830000000	117
31.2130000000	90
31.2430000000	116
31.2730000000	110
31.3030000000	113
31.3330000000	108
31.3630000000	112
31.3930000000	101
31.4230000000	123
31.4530000000	122
31.4830000000	119
31.5130000000	99
31.5430000000	108
31.5730000000	120
31.6030000000	110
31.6330000000	123
31.6630000000	118
31.6930000000	107
31.7230000000	111
31.7530000000	104
31.7830000000	98
31.8130000000	113
31.8430000000	98
31.8730000000	109
31.9030000000	105
31.9330000000	108
31.9630000000	108
31.9930000000	116
32.0230000000	100
32.0530000000	110
32.0830000000	111
32.1130000000	105
32.1430000000	97
32.1730000000	115
32.2030000000	103
32.2330000000	100
32.2630000000	99
32.2930000000	95
32.3230000000	105
32.3530000000	117
32.3830000000	93
32.4130000000	98
32.4430000000	105
32.4730000000	114
32.5030000000	104
32.5330000000	110
32.5630000000	108
32.5930000000	103
32.6230000000	94
32.6530000000	108
32.6830000000	110
32.7130000000	102
32.7430000000	112
32.7730000000	96
32.8030000000	99
32.8330000000	118
32.8630000000	125
32.8930000000	111
32.9230000000	105
32.9530000000	108
32.9830000000	111
33.0130000000	111
33.0430000000	111
33.0730000000	118
33.1030000000	115
33.1330000000	120
33.1630000000	107
33.1930000000	114
33.2230000000	117
33.2530000000	133
33.2830000000	136
33.3130000000	141
33.3430000000	168
33.3730000000	204
33.4030000000	258
33.4330000000	400
33.4630000000	538
33.4930000000	795
33.5230000000	1214
33.5530000000	1835
33.5830000000	2519
33.6130000000	3097
33.6430000000	3133
33.6730000000	2679
33.7030000000	1950
33.7330000000	1242
33.7630000000	745
33.7930000000	455
33.8230000000	281
33.8530000000	221
33.8830000000	174
33.9130000000	163
33.9430000000	120
33.9730000000	118
34.0030000000	112
34.0330000000	114
34.0630000000	107
34.0930000000	93
34.1230000000	104
34.1530000000	95
34.1830000000	99
34.2130000000	90
34.2430000000	110
34.2730000000	122
34.3030000000	98
34.3330000000	102
34.3630000000	117
34.3930000000	89
34.4230000000	101
34.4530000000	107
34.4830000000	101
34.5130000000	104
34.5430000000	95
34.5730000000	97
34.6030000000	93
34.6330000000	90
34.6630000000	101
34.6930000000	84
34.7230000000	85
34.7530000000	87
34.7830000000	90
34.8130000000	108
34.8430000000	99
34.8730000000	90
34.9030000000	95
34.9330000000	85
34.9630000000	87
34.9930000000	82
35.0230000000	89
35.0530000000	83
35.0830000000	89
35.1130000000	93
35.1430000000	103
35.1730000000	85
35.2030000000	84
35.2330000000	85
35.2630000000	87
35.2930000000	93
35.3230000000	98
35.3530000000	87
35.3830000000	97
35.4130000000	89
35.4430000000	81
35.4730000000	82
35.5030000000	97
35.5330000000	83
35.5630000000	81
35.5930000000	94
35.6230000000	94
35.6530000000	88
35.6830000000	81
35.7130000000	76
35.7430000000	75
35.7730000000	92
35.8030000000	85
35.8330000000	86
35.8630000000	92
35.8930000000	108
35.9230000000	91
35.9530000000	109
35.9830000000	122
36.0130000000	136
36.0430000000	124
36.0730000000	179
36.1030000000	220
36.1330000000	297
36.1630000000	290
36.1930000000	303
36.2230000000	297
36.2530000000	250
36.2830000000	187
36.3130000000	146
36.3430000000	117
36.3730000000	107
36.4030000000	113
36.4330000000	118
36.4630000000	95
36.4930000000	87
36.5230000000	83
36.5530000000	87
36.5830000000	88
36.6130000000	95
36.6430000000	93
36.6730000000	93
36.7030000000	89
36.7330000000	100
36.7630000000	96
36.7930000000	96
36.8230000000	99
36.8530000000	81
36.8830000000	87
36.9130000000	96
36.9430000000	79
36.9730000000	82
37.0030000000	84
37.0330000000	85
37.0630000000	102
37.0930000000	86
37.1230000000	83
37.1530000000	94
37.1830000000	89
37.2130000000	78
37.2430000000	94
37.2730000000	77
37.3030000000	100
37.3330000000	93
37.3630000000	99
37.3930000000	106
37.4230000000	93
37.4530000000	78
37.4830000000	88
37.5130000000	89
37.5430000000	94
37.5730000000	89
37.6030000000	81
37.6330000000	96
37.6630000000	119
37.6930000000	95
37.7230000000	89
37.7530000000	122
37.7830000000	129
37.8130000000	109
37.8430000000	127
37.8730000000	159
37.9030000000	185
37.9330000000	227
37.9630000000	340
37.9930000000	499
38.0230000000	789
38.0530000000	1261
38.0830000000	1755
38.1130000000	2369
38.1430000000	2826
38.1730000000	2882
38.2030000000	2470
38.2330000000	1965
38.2630000000	1442
38.2930000000	918
38.3230000000	591
38.3530000000	378
38.3830000000	260
38.4130000000	195
38.4430000000	153
38.4730000000	126
38.5030000000	99
38.5330000000	121
38.5630000000	119
38.5930000000	116
38.6230000000	108
38.6530000000	99
38.6830000000	105
38.7130000000	97
38.7430000000	99
38.7730000000	95
38.8030000000	92
38.8330000000	88
38.8630000000	84
38.8930000000	105
38.9230000000	97
38.9530000000	82
38.9830000000	85
39.0130000000	85
39.0430000000	88
39.0730000000	76
39.1030000000	67
39.1330000000	88
39.1630000000	106
39.1930000000	102
39.2230000000	89
39.2530000000	85
39.2830000000	91
39.3130000000	95
39.3430000000	87
39.3730000000	91
39.4030000000	87
39.4330000000	88
39.4630000000	81
39.4930000000	85
39.5230000000	84
39.5530000000	87
39.5830000000	82
39.6130000000	96
39.6430000000	85
39.6730000000	78
39.7030000000	84
39.7330000000	74
39.7630000000	78
39.7930000000	74
39.8230000000	74
39.8530000000	78
39.8830000000	70
39.9130000000	75
39.9430000000	73
39.9730000000	81
40.0030000000	80
40.0330000000	63
40.0630000000	89
40.0930000000	82
40.1230000000	59
40.1530000000	87
40.1830000000	87
40.2130000000	77
40.2430000000	71
40.2730000000	85
40.3030000000	88
40.3330000000	64
40.3630000000	72
40.3930000000	73
40.4230000000	81
40.4530000000	85
40.4830000000	72
40.5130000000	86
40.5430000000	79
40.5730000000	63
40.6030000000	82
40.6330000000	83
40.6630000000	85
40.6930000000	84
40.7230000000	76
40.7530000000	78
40.7830000000	90
40.8130000000	60
40.8430000000	80
40.8730000000	82
40.9030000000	86
40.9330000000	81
40.9630000000	65
40.9930000000	83
41.0230000000	94
41.0530000000	81
41.0830000000	78
41.1130000000	81
41.1430000000	78
41.1730000000	81
41.2030000000	74
41.2330000000	83
41.2630000000	81
41.2930000000	78
41.3230000000	81
41.3530000000	77
41.3830000000	95
41.4130000000	89
41.4430000000	89
41.4730000000	72
41.5030000000	79
41.5330000000	72
41.5630000000	86
41.5930000000	69
41.6230000000	74
41.6530000000	79
41.6830000000	70
41.7130000000	71
41.7430000000	86
41.7730000000	69
41.8030000000	66
41.8330000000	85
41.8630000000	91
41.8930000000	81
41.9230000000	90
41.9530000000	105
41.9830000000	122
42.0130000000	130
42.0430000000	169
42.0730000000	232
42.1030000000	284
42.1330000000	293
42.1630000000	289
42.1930000000	258
42.2230000000	241
42.2530000000	207
42.2830000000	150
42.3130000000	125
42.3430000000	109
42.3730000000	79
42.4030000000	106
42.4330000000	112
42.4630000000	84
42.4930000000	85
42.5230000000	87
42.5530000000	92
42.5830000000	89
42.6130000000	90
42.6430000000	82
42.6730000000	82
42.7030000000	98
42.7330000000	77
42.7630000000	62
42.7930000000	66
42.8230000000	63
42.8530000000	73
42.8830000000	72
42.9130000000	70
42.9430000000	54
42.9730000000	70
43.0030000000	73
43.0330000000	63
43.0630000000	69
43.0930000000	68
43.1230000000	67
43.1530000000	72
43.1830000000	65
43.2130000000	68
43.2430000000	75
43.2730000000	75
43.3030000000	56
43.3330000000	69
43.3630000000	85
43.3930000000	65
43.4230000000	69
43.4530000000	64
43.4830000000	74
43.5130000000	69
43.5430000000	79
43.5730000000	80
43.6030000000	67
43.6330000000	75
43.6630000000	92
43.6930000000	94
43.7230000000	93
43.7530000000	127
43.7830000000	161
43.8130000000	192
43.8430000000	207
43.8730000000	235
43.9030000000	232
43.9330000000	214
43.9630000000	199
43.9930000000	141
44.0230000000	126
44.0530000000	109
44.0830000000	86
44.1130000000	73
44.1430000000	69
44.1730000000	77
44.2030000000	87
44.2330000000	63
44.2630000000	75
44.2930000000	69
44.3230000000	64
44.3530000000	78
44.3830000000	68
44.4130000000	71
44.4430000000	59
44.4730000000	61
44.5030000000	76
44.5330000000	50
44.5630000000	76
44.5930000000	72
44.6230000000	68
44.6530000000	67
44.6830000000	64
44.7130000000	67
44.7430000000	41
44.7730000000	74
44.8030000000	78
44.8330000000	65
44.8630000000	60
44.8930000000	60
44.9230000000	61
44.9530000000	61
44.9830000000	59
45.0130000000	62
45.0430000000	61
45.0730000000	64
45.1030000000	51
45.1330000000	63
45.1630000000	67
45.1930000000	67
45.2230000000	62
45.2530000000	69
45.2830000000	69
45.3130000000	71
45.3430000000	70
45.3730000000	67
45.4030000000	73
45.4330000000	76
45.4630000000	67
45.4930000000	65
45.5230000000	68
45.5530000000	64
45.5830000000	62
45.6130000000	74
45.6430000000	66
45.6730000000	57
45.7030000000	66
45.7330000000	67
45.7630000000	66
45.7930000000	68
45.8230000000	55
45.8530000000	61
45.8830000000	67
45.9130000000	64
45.9430000000	72
45.9730000000	67
46.0030000000	60
46.0330000000	61
46.0630000000	65
46.0930000000	79
46.1230000000	85
46.1530000000	70
46.1830000000	83
46.2130000000	76
46.2430000000	84
46.2730000000	94
46.3030000000	105
46.3330000000	141
46.3630000000	179
46.3930000000	266
46.4230000000	398
46.4530000000	548
46.4830000000	748
46.5130000000	862
46.5430000000	900
46.5730000000	910
46.6030000000	774
46.6330000000	666
46.6630000000	530
46.6930000000	464
46.7230000000	435
46.7530000000	506
46.7830000000	633
46.8130000000	655
46.8430000000	646
46.8730000000	622
46.9030000000	565
46.9330000000	438
46.9630000000	339
46.9930000000	240
47.0230000000	171
47.0530000000	142
47.0830000000	92
47.1130000000	108
47.1430000000	78
47.1730000000	72
47.2030000000	83
47.2330000000	84
47.2630000000	62
47.2930000000	68
47.3230000000	74
47.3530000000	63
47.3830000000	66
47.4130000000	61
47.4430000000	81
47.4730000000	79
47.5030000000	83
47.5330000000	64
47.5630000000	48
47.5930000000	58
47.6230000000	66
47.6530000000	60
47.6830000000	70
47.7130000000	52
47.7430000000	55
47.7730000000	62
47.8030000000	75
47.8330000000	65
47.8630000000	75
47.8930000000	70
47.9230000000	59
47.9530000000	61
47.9830000000	55
48.0130000000	46
48.0430000000	68
48.0730000000	55
48.1030000000	64
48.1330000000	54
48.1630000000	53
48.1930000000	46
48.2230000000	56
48.2530000000	62
48.2830000000	52
48.3130000000	59
48.3430000000	61
48.3730000000	65
48.4030000000	60
48.4330000000	47
48.4630000000	61
48.4930000000	56
48.5230000000	47
48.5530000000	36
48.5830000000	49
48.6130000000	63
48.6430000000	58
48.6730000000	48
48.7030000000	51
48.7330000000	62
48.7630000000	57
48.7930000000	61
48.8230000000	58
48.8530000000	48
48.8830000000	62
48.9130000000	65
48.9430000000	48
48.9730000000	58
49.0030000000	60
49.0330000000	49
49.0630000000	68
49.0930000000	56
49.1230000000	53
49.1530000000	55
49.1830000000	47
49.2130000000	48
49.2430000000	48
49.2730000000	54
49.3030000000	51
49.3330000000	47
49.3630000000	47
49.3930000000	50
49.4230000000	60
49.4530000000	53
49.4830000000	53
49.5130000000	63
49.5430000000	43
49.5730000000	48
49.6030000000	47
49.6330000000	53
49.6630000000	47
49.6930000000	54
49.7230000000	56
49.7530000000	53
49.7830000000	60
49.8130000000	75
49.8430000000	46
49.8730000000	57
49.9030000000	58
49.9330000000	48
49.9630000000	60
49.9930000000	68
50.0230000000	72
50.0530000000	52
50.0830000000	58
50.1130000000	54
50.1430000000	54
50.1730000000	50
50.2030000000	57
50.2330000000	65
50.2630000000	54
50.2930000000	67
50.3230000000	55
50.3530000000	55
50.3830000000	64
50.4130000000	72
50.4430000000	85
50.4730000000	98
50.5030000000	117
50.5330000000	133
50.5630000000	106
50.5930000000	92
50.6230000000	99
50.6530000000	77
50.6830000000	66
50.7130000000	57
50.7430000000	58
50.7730000000	52
50.8030000000	48
50.8330000000	52
50.8630000000	42
50.8930000000	42
50.9230000000	45
50.9530000000	40
50.9830000000	49
51.0130000000	48
51.0430000000	42
51.0730000000	38
51.1030000000	38
51.1330000000	44
51.1630000000	49
51.1930000000	51
51.2230000000	62
51.2530000000	55
51.2830000000	58
51.3130000000	58
51.3430000000	50
51.3730000000	61
51.4030000000	56
51.4330000000	49
51.4630000000	50
51.4930000000	43
51.5230000000	45
51.5530000000	51
51.5830000000	60
51.6130000000	55
51.6430000000	48
51.6730000000	55
51.7030000000	54
51.7330000000	51
51.7630000000	45
51.7930000000	52
51.8230000000	42
51.8530000000	40
51.8830000000	53
51.9130000000	56
51.9430000000	51
51.9730000000	44
52.0030000000	54
52.0330000000	53
52.0630000000	47
52.0930000000	50
52.1230000000	41
52.1530000000	53
52.1830000000	46
52.2130000000	43
52.2430000000	50
52.2730000000	50
52.3030000000	49
52.3330000000	50
52.3630000000	39
52.3930000000	32
52.4230000000	51
52.4530000000	49
52.4830000000	36
52.5130000000	50
52.5430000000	46
52.5730000000	39
52.6030000000	42
52.6330000000	58
52.6630000000	52
52.6930000000	39
52.7230000000	55
52.7530000000	51
52.7830000000	61
52.8130000000	37
52.8430000000	43
52.8730000000	43
52.9030000000	49
52.9330000000	37
52.9630000000	52
52.9930000000	60
53.0230000000	53
53.0530000000	50
53.0830000000	45
53.1130000000	33
53.1430000000	38
53.1730000000	57
53.2030000000	40
53.2330000000	51
53.2630000000	51
53.2930000000	51
53.3230000000	50
53.3530000000	60
53.3830000000	62
53.4130000000	57
53.4430000000	63
53.4730000000	60
53.5030000000	80
53.5330000000	103
53.5630000000	115
53.5930000000	112
53.6230000000	102
53.6530000000	102
53.6830000000	86
53.7130000000	90
53.7430000000	83
53.7730000000	71
53.8030000000	73
53.8330000000	56
53.8630000000	45
53.8930000000	48
53.9230000000	43
53.9530000000	44
53.9830000000	46
54.0130000000	46
54.0430000000	48
54.0730000000	46
54.1030000000	38
54.1330000000	49
54.1630000000	47
54.1930000000	54
54.2230000000	46
54.2530000000	50
54.2830000000	42
54.3130000000	49
54.3430000000	41
54.3730000000	43
54.4030000000	65
54.4330000000	43
54.4630000000	41
54.4930000000	37
54.5230000000	47
54.5530000000	47
54.5830000000	33
54.6130000000	45
54.6430000000	47
54.6730000000	34
54.7030000000	36
54.7330000000	44
54.7630000000	40
54.7930000000	53
54.8230000000	40
54.8530000000	41
54.8830000000	38
54.9130000000	42
54.9430000000	48
54.9730000000	42
55.0030000000	49
55.0330000000	35
55.0630000000	39
55.0930000000	36
55.1230000000	50
55.1530000000	55
55.1830000000	39
55.2130000000	44
55.2430000000	43
55.2730000000	52
55.3030000000	42
55.3330000000	42
55.3630000000	38
55.3930000000	61
55.4230000000	40
55.4530000000	39
55.4830000000	48
55.5130000000	40
55.5430000000	47
55.5730000000	37
55.6030000000	38
55.6330000000	39
55.6630000000	44
55.6930000000	44
55.7230000000	30
55.7530000000	39
55.7830000000	41
55.8130000000	41
55.8430000000	46
55.8730000000	51
55.9030000000	35
55.9330000000	37
55.9630000000	38
55.9930000000	53
56.0230000000	52
56.0530000000	44
56.0830000000	55
56.1130000000	51
56.1430000000	42
56.1730000000	35
56.2030000000	37
56.2330000000	38
56.2630000000	46
56.2930000000	50
56.3230000000	51
56.3530000000	42
56.3830000000	44
56.4130000000	54
56.4430000000	48
56.4730000000	42
56.5030000000	48
56.5330000000	41
56.5630000000	43
56.5930000000	39
56.6230000000	48
56.6530000000	46
56.6830000000	47
56.7130000000	59
56.7430000000	42
56.7730000000	44
56.8030000000	38
56.8330000000	45
56.8630000000	38
56.8930000000	39
56.9230000000	28
56.9530000000	48
56.9830000000	57
57.0130000000	42
57.0430000000	51
57.0730000000	34
57.1030000000	37
57.1330000000	49
57.1630000000	49
57.1930000000	41
57.2230000000	35
57.2530000000	46
57.2830000000	43
57.3130000000	49
57.3430000000	43
57.3730000000	40
57.4030000000	42
57.4330000000	37
57.4630000000	35
57.4930000000	52
57.5230000000	44
57.5530000000	39
57.5830000000	39
57.6130000000	38
57.6430000000	38
57.6730000000	30
57.7030000000	60
57.7330000000	35
57.7630000000	41
57.7930000000	44
57.8230000000	51
57.8530000000	45
57.8830000000	41
57.9130000000	42
57.9430000000	45
57.9730000000	50
58.0030000000	35
58.0330000000	67
58.0630000000	60
58.0930000000	75
58.1230000000	72
58.1530000000	80
58.1830000000	70
58.2130000000	99
58.2430000000	72
58.2730000000	81
58.3030000000	61
58.3330000000	52
58.3630000000	61
58.3930000000	64
58.4230000000	44
58.4530000000	40
58.4830000000	40
58.5130000000	39
58.5430000000	42
58.5730000000	53
58.6030000000	43
58.6330000000	44
58.6630000000	38
58.6930000000	34
58.7230000000	32
58.7530000000	41
58.7830000000	39
58.8130000000	54
58.8430000000	34
58.8730000000	42
58.9030000000	36
58.9330000000	41
58.9630000000	50
58.9930000000	45
59.0230000000	55
59.0530000000	50
59.0830000000	75
59.1130000000	69
59.1430000000	75
59.1730000000	73
59.2030000000	57
59.2330000000	63
59.2630000000	78
59.2930000000	51
59.3230000000	53
59.3530000000	51
59.3830000000	41
59.4130000000	31
59.4430000000	51
59.4730000000	41
59.5030000000	41
59.5330000000	39
59.5630000000	39
59.5930000000	49
59.6230000000	61
59.6530000000	47
59.6830000000	52
59.7130000000	43
59.7430000000	45
59.7730000000	42
59.8030000000	55
59.8330000000	47
59.8630000000	67
59.8930000000	79
59.9230000000	108
59.9530000000	116
59.9830000000	120
60.0130000000	116
60.0430000000	108
60.0730000000	107
60.1030000000	101
60.1330000000	91
60.1630000000	68
60.1930000000	50
60.2230000000	54
60.2530000000	48
60.2830000000	44
60.3130000000	60
60.3430000000	52
60.3730000000	58
60.4030000000	46
60.4330000000	43
60.4630000000	45
60.4930000000	53
60.5230000000	48
60.5530000000	77
60.5830000000	60
60.6130000000	44
60.6430000000	52
60.6730000000	46
60.7030000000	59
60.7330000000	46
60.7630000000	49
60.7930000000	45
60.8230000000	41
60.8530000000	36
60.8830000000	42
60.9130000000	36
60.9430000000	34
60.9730000000	45
61.0030000000	37
61.0330000000	38
61.0630000000	39
61.0930000000	36
61.1230000000	36
61.1530000000	52
61.1830000000	35
61.2130000000	49
61.2430000000	37
61.2730000000	29
61.3030000000	41
61.3330000000	45
61.3630000000	39
61.3930000000	28
61.4230000000	35
61.4530000000	34
61.4830000000	48
61.5130000000	48
61.5430000000	38
61.5730000000	29
61.6030000000	48
61.6330000000	40
61.6630000000	52
61.6930000000	48
61.7230000000	51
61.7530000000	58
61.7830000000	65
61.8130000000	75
61.8430000000	88
61.8730000000	71
61.9030000000	63
61.9330000000	70
61.9630000000	64
61.9930000000	78
62.0230000000	58
62.0530000000	68
62.0830000000	48
62.1130000000	68
62.1430000000	44
62.1730000000	48
62.2030000000	35
62.2330000000	37
62.2630000000	35
62.2930000000	33
62.3230000000	46
62.3530000000	49
62.3830000000	39
62.4130000000	37
62.4430000000	41
62.4730000000	37
62.5030000000	31
62.5330000000	45
62.5630000000	42
62.5930000000	37
62.6230000000	42
62.6530000000	39
62.6830000000	40
62.7130000000	36
62.7430000000	45
62.7730000000	36
62.8030000000	45
62.8330000000	49
62.8630000000	36
62.8930000000	40
62.9230000000	40
62.9530000000	46
62.9830000000	28
63.0130000000	41
63.0430000000	44
63.0730000000	38
63.1030000000	44
63.1330000000	44
63.1630000000	48
63.1930000000	37
63.2230000000	45
63.2530000000	44
63.2830000000	41
63.3130000000	46
63.3430000000	38
63.3730000000	36
63.4030000000	43
63.4330000000	52
63.4630000000	39
63.4930000000	43
63.5230000000	41
63.5530000000	39
63.5830000000	43
63.6130000000	41
63.6430000000	55
63.6730000000	35
63.7030000000	38
63.7330000000	56
63.7630000000	26
63.7930000000	32
63.8230000000	45
63.8530000000	34
63.8830000000	34
63.9130000000	46
63.9430000000	50
63.9730000000	43
64.0030000000	38
64.0330000000	35
64.0630000000	42
64.0930000000	30
64.1230000000	42
64.1530000000	31
64.1830000000	47
64.2130000000	42
64.2430000000	32
64.2730000000	39
64.3030000000	35
64.3330000000	55
64.3630000000	41
64.3930000000	44
64.4230000000	41
64.4530000000	40
64.4830000000	47
64.5130000000	29
64.5430000000	47
64.5730000000	42
64.6030000000	47
64.6330000000	46
64.6630000000	39
64.6930000000	26
64.7230000000	28
64.7530000000	36
64.7830000000	31
64.8130000000	38
64.8430000000	35
64.8730000000	48
64.9030000000	34
64.9330000000	33
64.9630000000	44
64.9930000000	37
65.0230000000	37
65.0530000000	43
65.0830000000	43
65.1130000000	33
65.1430000000	41
65.1730000000	41
65.2030000000	27
65.2330000000	35
65.2630000000	46
65.2930000000	37
65.3230000000	39
65.3530000000	41
65.3830000000	32
65.4130000000	37
65.4430000000	43
65.4730000000	49
65.5030000000	50
65.5330000000	34
65.5630000000	45
65.5930000000	40
65.6230000000	35
65.6530000000	41
65.6830000000	39
65.7130000000	42
65.7430000000	35
65.7730000000	45
65.8030000000	56
65.8330000000	68
65.8630000000	64
65.8930000000	90
65.9230000000	114
65.9530000000	124
65.9830000000	122
66.0130000000	133
66.0430000000	102
66.0730000000	132
66.1030000000	113
66.1330000000	117
66.1630000000	102
66.1930000000	91
66.2230000000	85
66.2530000000	71
66.2830000000	67
66.3130000000	62
66.3430000000	44
66.3730000000	44
66.4030000000	59
66.4330000000	38
66.4630000000	31
66.4930000000	39
66.5230000000	36
66.5530000000	35
66.5830000000	41
66.6130000000	43
66.6430000000	39
66.6730000000	38
66.7030000000	45
66.7330000000	44
66.7630000000	39
66.7930000000	40
66.8230000000	35
66.8530000000	40
66.8830000000	39
66.9130000000	41
66.9430000000	43
66.9730000000	37
67.0030000000	36
67.0330000000	35
67.0630000000	41
67.0930000000	35
67.1230000000	34
67.1530000000	39
67.1830000000	39
67.2130000000	35
67.2430000000	35
67.2730000000	43
67.3030000000	45
67.3330000000	40
67.3630000000	40
67.3930000000	38
67.4230000000	39
67.4530000000	44
67.4830000000	40
67.5130000000	25
67.5430000000	46
67.5730000000	41
67.6030000000	45
67.6330000000	42
67.6630000000	40
67.6930000000	40
67.7230000000	41
67.7530000000	37
67.7830000000	38
67.8130000000	48
67.8430000000	47
67.8730000000	37
67.9030000000	42
67.9330000000	44
67.9630000000	31
67.9930000000	37
68.0230000000	35
68.0530000000	37
68.0830000000	44
68.1130000000	36
68.1430000000	45
68.1730000000	45
68.2030000000	44
68.2330000000	38
68.2630000000	47
68.2930000000	44
68.3230000000	36
68.3530000000	47
68.3830000000	38
68.4130000000	42
68.4430000000	50
68.4730000000	39
68.5030000000	43
68.5330000000	39
68.5630000000	46
68.5930000000	41
68.6230000000	28
68.6530000000	40
68.6830000000	37
68.7130000000	33
68.7430000000	60
68.7730000000	64
68.8030000000	76
68.8330000000	87
68.8630000000	84
68.8930000000	83
68.9230000000	81
68.9530000000	82
68.9830000000	85
69.0130000000	79
69.0430000000	78
69.0730000000	87
69.1030000000	82
69.1330000000	72
69.1630000000	66
69.1930000000	66
69.2230000000	69
69.2530000000	66
69.2830000000	66
69.3130000000	45
69.3430000000	67
69.3730000000	66
69.4030000000	45
69.4330000000	46
69.4630000000	36
69.4930000000	46
69.5230000000	48
69.5530000000	40
69.5830000000	35
69.6130000000	48
69.6430000000	43
69.6730000000	30
69.7030000000	41
69.7330000000	42
69.7630000000	41
69.7930000000	36
69.8230000000	35
69.8530000000	37
69.8830000000	46
69.9130000000	32
69.9430000000	50
69.9730000000	39
70.0030000000	50
70.0330000000	39
70.0630000000	41
70.0930000000	34
70.1230000000	32
70.1530000000	39
70.1830000000	42
70.2130000000	46
70.2430000000	41
70.2730000000	43
70.3030000000	46
70.3330000000	41
70.3630000000	42
70.3930000000	46
70.4230000000	46
70.4530000000	39
70.4830000000	33
70.5130000000	40
70.5430000000	31
70.5730000000	40
70.6030000000	43
70.6330000000	36
70.6630000000	29
70.6930000000	39
70.7230000000	55
70.7530000000	44
70.7830000000	44
70.8130000000	58
70.8430000000	38
70.8730000000	33
70.9030000000	41
70.9330000000	47
70.9630000000	44
70.9930000000	38
71.0230000000	34
71.0530000000	39
71.0830000000	45
71.1130000000	44
71.1430000000	37
71.1730000000	36
71.2030000000	33
71.2330000000	33
71.2630000000	39
71.2930000000	42
71.3230000000	43
71.3530000000	38
71.3830000000	39
71.4130000000	41
71.4430000000	46
71.4730000000	45
71.5030000000	36
71.5330000000	34
71.5630000000	34
71.5930000000	32
71.6230000000	38
71.6530000000	37
71.6830000000	35
71.7130000000	40
71.7430000000	40
71.7730000000	35
71.8030000000	40
71.8330000000	46
71.8630000000	39
71.8930000000	42
71.9230000000	35
71.9530000000	44
71.9830000000	39
72.0130000000	41
72.0430000000	47
72.0730000000	50
72.1030000000	53
72.1330000000	46
72.1630000000	50
72.1930000000	59
72.2230000000	73
72.2530000000	77
72.2830000000	78
72.3130000000	83
72.3430000000	90
72.3730000000	69
72.4030000000	71
72.4330000000	60
72.4630000000	67
72.4930000000	59
72.5230000000	61
72.5530000000	64
72.5830000000	51
72.6130000000	52
72.6430000000	37
72.6730000000	42
72.7030000000	39
72.7330000000	41
72.7630000000	32
72.7930000000	42
72.8230000000	37
72.8530000000	44
72.8830000000	36
72.9130000000	49
72.9430000000	42
72.9730000000	40
73.0030000000	39
73.0330000000	39
73.0630000000	36
73.0930000000	50
73.1230000000	44
73.1530000000	38
73.1830000000	61
73.2130000000	66
73.2430000000	72
73.2730000000	62
73.3030000000	80
73.3330000000	84
73.3630000000	79
73.3930000000	72
73.4230000000	58
73.4530000000	74
73.4830000000	61
73.5130000000	61
73.5430000000	71
73.5730000000	57
73.6030000000	42
73.6330000000	34
73.6630000000	39
73.6930000000	44
73.7230000000	41
73.7530000000	39
73.7830000000	40
73.8130000000	44
73.8430000000	41
73.8730000000	37
73.9030000000	40
73.9330000000	39
73.9630000000	42
73.9930000000	39
74.0230000000	40
74.0530000000	39
74.0830000000	41
74.1130000000	44
74.1430000000	44
74.1730000000	43
74.2030000000	39
74.2330000000	45
74.2630000000	39
74.2930000000	34
74.3230000000	47
74.3530000000	37
74.3830000000	37
74.4130000000	32
74.4430000000	37
74.4730000000	40
74.5030000000	47
74.5330000000	30
74.5630000000	41
74.5930000000	42
74.6230000000	33
74.6530000000	33
74.6830000000	38
74.7130000000	53
74.7430000000	67
74.7730000000	65
74.8030000000	72
74.8330000000	61
74.8630000000	81
74.8930000000	83
74.9230000000	58
74.9530000000	65
74.9830000000	87
75.0130000000	82
75.0430000000	89
75.0730000000	99
75.1030000000	104
75.1330000000	110
75.1630000000	89
75.1930000000	66
75.2230000000	75
75.2530000000	67
75.2830000000	51
75.3130000000	53
75.3430000000	50
75.3730000000	41
75.4030000000	51
75.4330000000	65
75.4630000000	51
75.4930000000	49
75.5230000000	58
75.5530000000	38
75.5830000000	57
75.6130000000	54
75.6430000000	36
75.6730000000	46
75.7030000000	38
75.7330000000	43
75.7630000000	38
75.7930000000	46
75.8230000000	49
75.8530000000	46
75.8830000000	39
75.9130000000	24
75.9430000000	34
75.9730000000	39
76.0030000000	39
76.0330000000	40
76.0630000000	46
76.0930000000	44
76.1230000000	36
76.1530000000	43
76.1830000000	43
76.2130000000	33
76.2430000000	40
76.2730000000	37
76.3030000000	28
76.3330000000	27
76.3630000000	28
76.3930000000	40
76.4230000000	36
76.4530000000	33
76.4830000000	31
76.5130000000	38
76.5430000000	48
76.5730000000	38
76.6030000000	40
76.6330000000	39
76.6630000000	41
76.6930000000	37
76.7230000000	43
76.7530000000	48
76.7830000000	58
76.8130000000	44
76.8430000000	37
76.8730000000	59
76.9030000000	49
76.9330000000	49
76.9630000000	40
76.9930000000	33
77.0230000000	54
77.0530000000	49
77.0830000000	53
77.1130000000	44
77.1430000000	36
77.1730000000	39
77.2030000000	46
77.2330000000	46
77.2630000000	45
77.2930000000	43
77.3230000000	32
77.3530000000	52
77.3830000000	36
77.4130000000	37
77.4430000000	44
77.4730000000	49
77.5030000000	57
77.5330000000	61
77.5630000000	55
77.5930000000	50
77.6230000000	51
77.6530000000	56
77.6830000000	39
77.7130000000	49
77.7430000000	45
77.7730000000	39
77.8030000000	46
77.8330000000	47
77.8630000000	46
77.8930000000	41
77.9230000000	42
77.9530000000	42
77.9830000000	35
78.0130000000	44
78.0430000000	40
78.0730000000	41
78.1030000000	33
78.1330000000	37
78.1630000000	32
78.1930000000	48
78.2230000000	36
78.2530000000	44
78.2830000000	43
78.3130000000	33
78.3430000000	38
78.3730000000	41
78.4030000000	42
78.4330000000	32
78.4630000000	42
78.4930000000	40
78.5230000000	34
78.5530000000	26
78.5830000000	33
78.6130000000	38
78.6430000000	37
78.6730000000	37
78.7030000000	37
78.7330000000	41
78.7630000000	33
78.7930000000	34
78.8230000000	41
78.8530000000	38
78.8830000000	37
78.9130000000	43
78.9430000000	42
78.9730000000	43
79.0030000000	43
79.0330000000	36
79.0630000000	43
79.0930000000	39
79.1230000000	33
79.1530000000	35
79.1830000000	25
79.2130000000	45
79.2430000000	35
79.2730000000	30
79.3030000000	48
79.3330000000	34
79.3630000000	40
79.3930000000	36
79.4230000000	45
79.4530000000	43
79.4830000000	32
79.5130000000	43
79.5430000000	31
79.5730000000	32
79.6030000000	43
79.6330000000	42
79.6630000000	40
79.6930000000	42
79.7230000000	30
79.7530000000	34
79.7830000000	35
79.8130000000	40
79.8430000000	40
79.8730000000	17
79.9030000000	42
79.9330000000	31
79.9630000000	35
79.9930000000	36
80.0230000000	29
80.0530000000	34
80.0830000000	37
80.1130000000	30
80.1430000000	46
80.1730000000	45
80.2030000000	38
80.2330000000	37
80.2630000000	39
80.2930000000	43
80.3230000000	34
80.3530000000	43
80.3830000000	34
80.4130000000	37
80.4430000000	37
80.4730000000	34
80.5030000000	41
80.5330000000	45
80.5630000000	50
80.5930000000	32
80.6230000000	45
80.6530000000	39
80.6830000000	47
80.7130000000	40
80.7430000000	53
80.7730000000	48
80.8030000000	46
80.8330000000	40
80.8630000000	37
80.8930000000	40
80.9230000000	50
80.9530000000	37
80.9830000000	48
81.0130000000	35
81.0430000000	35
81.0730000000	36
81.1030000000	37
81.1330000000	37
81.1630000000	45
81.1930000000	30
81.2230000000	39
81.2530000000	38
81.2830000000	38
81.3130000000	45
81.3430000000	40
81.3730000000	46
81.4030000000	58
81.4330000000	52
81.4630000000	80
81.4930000000	71
81.5230000000	78
81.5530000000	67
81.5830000000	86
81.6130000000	64
81.6430000000	82
81.6730000000	78
81.7030000000	71
81.7330000000	84
81.7630000000	58
81.7930000000	72
81.8230000000	41
81.8530000000	47
81.8830000000	56
81.9130000000	42
81.9430000000	55
81.9730000000	41
82.0030000000	45
82.0330000000	39
82.0630000000	33
82.0930000000	37
82.1230000000	38
82.1530000000	35
82.1830000000	36
82.2130000000	34
82.2430000000	41
82.2730000000	48
82.3030000000	43
82.3330000000	34
82.3630000000	34
82.3930000000	36
82.4230000000	38
82.4530000000	35
82.4830000000	35
82.5130000000	42
82.5430000000	40
82.5730000000	37
82.6030000000	40
82.6330000000	41
82.6630000000	32
82.6930000000	27
82.7230000000	38
82.7530000000	36
82.7830000000	36
82.8130000000	34
82.8430000000	38
82.8730000000	30
82.9030000000	43
82.9330000000	39
82.9630000000	34
82.9930000000	36
83.0230000000	57
83.0530000000	45
83.0830000000	26
83.1130000000	38
83.1430000000	38
83.1730000000	32
83.2030000000	41
83.2330000000	36
83.2630000000	46
83.2930000000	48
83.3230000000	29
83.3530000000	41
83.3830000000	34
83.4130000000	45
83.4430000000	31
83.4730000000	40
83.5030000000	43
83.5330000000	48
83.5630000000	35
83.5930000000	51
83.6230000000	54
83.6530000000	73
83.6830000000	52
83.7130000000	67
83.7430000000	66
83.7730000000	41
83.8030000000	40
83.8330000000	58
83.8630000000	57
83.8930000000	44
83.9230000000	50
83.9530000000	45
83.9830000000	49
84.0130000000	50
84.0430000000	53
84.0730000000	48
84.1030000000	37
84.1330000000	39
84.1630000000	43
84.1930000000	37
84.2230000000	31
84.2530000000	36
84.2830000000	38
84.3130000000	33
84.3430000000	41
84.3730000000	38
84.4030000000	46
84.4330000000	35
84.4630000000	38
84.4930000000	34
84.5230000000	45
84.5530000000	32
84.5830000000	38
84.6130000000	46
84.6430000000	39
84.6730000000	46
84.7030000000	49
84.7330000000	52
84.7630000000	64
84.7930000000	92
84.8230000000	78
84.8530000000	83
84.8830000000	76
84.9130000000	56
84.9430000000	67
84.9730000000	70
85.0030000000	59
85.0330000000	55
85.0630000000	63
85.0930000000	49
85.1230000000	36
85.1530000000	38
85.1830000000	41
85.2130000000	48
85.2430000000	38
85.2730000000	47
85.3030000000	39
85.3330000000	51
85.3630000000	55
85.3930000000	36
85.4230000000	37
85.4530000000	43
85.4830000000	41
85.5130000000	34
85.5430000000	50
85.5730000000	34
85.6030000000	31
85.6330000000	44
85.6630000000	24
85.6930000000	35
85.7230000000	34
85.7530000000	32
85.7830000000	47
85.8130000000	32
85.8430000000	22
85.8730000000	33
85.9030000000	42
85.9330000000	24
85.9630000000	54
85.9930000000	39
86.0230000000	41
86.0530000000	47
86.0830000000	39
86.1130000000	36
86.1430000000	30
86.1730000000	41
86.2030000000	38
86.2330000000	38
86.2630000000	38
86.2930000000	32
86.3230000000	49
86.3530000000	30
86.3830000000	28
86.4130000000	49
86.4430000000	34
86.4730000000	45
86.5030000000	47
86.5330000000	42
86.5630000000	43
86.5930000000	43
86.6230000000	34
86.6530000000	41
86.6830000000	41
86.7130000000	39
86.7430000000	44
86.7730000000	43
86.8030000000	31
86.8330000000	33
86.8630000000	28
86.8930000000	34
86.9230000000	42
86.9530000000	33
86.9830000000	44
87.0130000000	45
87.0430000000	35
87.0730000000	30
87.1030000000	31
87.1330000000	37
87.1630000000	36
87.1930000000	34
87.2230000000	35
87.2530000000	33
87.2830000000	33
87.3130000000	40
87.3430000000	30
87.3730000000	29
87.4030000000	44
87.4330000000	25
87.4630000000	34
87.4930000000	40
87.5230000000	32
87.5530000000	36
87.5830000000	37
87.6130000000	33
87.6430000000	19
87.6730000000	36
87.7030000000	43
87.7330000000	40
87.7630000000	36
87.7930000000	41
87.8230000000	46
87.8530000000	43
87.8830000000	33
87.9130000000	31
87.9430000000	38
87.9730000000	28
88.0030000000	28
88.0330000000	37
88.0630000000	28
88.0930000000	32
88.1230000000	39
88.1530000000	39
88.1830000000	44
88.2130000000	30
88.2430000000	35
88.2730000000	35
88.3030000000	47
88.3330000000	44
88.3630000000	33
88.3930000000	30
88.4230000000	49
88.4530000000	29
88.4830000000	45
88.5130000000	39
88.5430000000	36
88.5730000000	33
88.6030000000	42
88.6330000000	41
88.6630000000	31
88.6930000000	37
88.7230000000	24
88.7530000000	40
88.7830000000	34
88.8130000000	34
88.8430000000	39
88.8730000000	30
88.9030000000	22
88.9330000000	44
88.9630000000	37
88.9930000000	31
89.0230000000	45
89.0530000000	43
89.0830000000	44
89.1130000000	45
89.1430000000	58
89.1730000000	49
89.2030000000	40
89.2330000000	54
89.2630000000	50
89.2930000000	43
89.3230000000	47
89.3530000000	52
89.3830000000	52
89.4130000000	43
89.4430000000	40
89.4730000000	44
89.5030000000	44
89.5330000000	48
89.5630000000	34
89.5930000000	32
89.6230000000	33
89.6530000000	38
89.6830000000	42
89.7130000000	42
89.7430000000	42
89.7730000000	43
89.8030000000	55
89.8330000000	54
89.8630000000	44
89.8930000000	55
89.9230000000	44
89.9530000000	35
89.9830000000	43
90.0130000000	33
90.0430000000	36
90.0730000000	36
90.1030000000	45
90.1330000000	43
90.1630000000	45
90.1930000000	35
90.2230000000	37
90.2530000000	29
90.2830000000	37
90.3130000000	32
90.3430000000	38
90.3730000000	40
90.4030000000	34
90.4330000000	45
90.4630000000	27
90.4930000000	36
90.5230000000	30
90.5530000000	35
90.5830000000	39
90.6130000000	28
90.6430000000	31
90.6730000000	34
90.7030000000	27
90.7330000000	28
90.7630000000	36
90.7930000000	33
90.8230000000	29
90.8530000000	56
90.8830000000	32
90.9130000000	39
90.9430000000	38
90.9730000000	49
91.0030000000	25
91.0330000000	39
91.0630000000	43
91.0930000000	39
91.1230000000	42
91.1530000000	27
91.1830000000	31
91.2130000000	35
91.2430000000	30
91.2730000000	30
91.3030000000	29
91.3330000000	39
91.3630000000	37
91.3930000000	40
91.4230000000	41
91.4530000000	27
91.4830000000	37
91.5130000000	36
91.5430000000	30
91.5730000000	31
91.6030000000	35
91.6330000000	33
91.6630000000	34
91.6930000000	40
91.7230000000	33
91.7530000000	35
91.7830000000	37
91.8130000000	33
91.8430000000	27
91.8730000000	36
91.9030000000	29
91.9330000000	40
91.9630000000	42
91.9930000000	42
92.0230000000	25
92.0530000000	41
92.0830000000	38
92.1130000000	37
92.1430000000	39
92.1730000000	43
92.2030000000	42
92.2330000000	35
92.2630000000	37
92.2930000000	34
92.3230000000	43
92.3530000000	34
92.3830000000	37
92.4130000000	36
92.4430000000	29
92.4730000000	36
92.5030000000	41
92.5330000000	31
92.5630000000	35
92.5930000000	40
92.6230000000	41
92.6530000000	41
92.6830000000	49
92.7130000000	33
92.7430000000	42
92.7730000000	49
92.8030000000	30
92.8330000000	36
92.8630000000	41
92.8930000000	38
92.9230000000	28
92.9530000000	26
92.9830000000	24
93.0130000000	35
93.0430000000	41
93.0730000000	33
93.1030000000	30
93.1330000000	35
93.1630000000	45
93.1930000000	38
93.2230000000	39
93.2530000000	43
93.2830000000	27
93.3130000000	36
93.3430000000	62
93.3730000000	37
93.4030000000	30
93.4330000000	37
93.4630000000	41
93.4930000000	38
93.5230000000	36
93.5530000000	32
93.5830000000	43
93.6130000000	37
93.6430000000	29
93.6730000000	26
93.7030000000	35
93.7330000000	35
93.7630000000	37
93.7930000000	39
93.8230000000	41
93.8530000000	31
93.8830000000	36
93.9130000000	28
93.9430000000	38
93.9730000000	44
94.0030000000	45
94.0330000000	47
94.0630000000	45
94.0930000000	47
94.1230000000	35
94.1530000000	44
94.1830000000	33
94.2130000000	43
94.2430000000	40
94.2730000000	48
94.3030000000	41
94.3330000000	39
94.3630000000	46
94.3930000000	56
94.4230000000	58
94.4530000000	54
94.4830000000	61
94.5130000000	65
94.5430000000	58
94.5730000000	57
94.6030000000	49
94.6330000000	47
94.6630000000	48
94.6930000000	41
94.7230000000	44
94.7530000000	55
94.7830000000	50
94.8130000000	48
94.8430000000	44
94.8730000000	36
94.9030000000	36
94.9330000000	33
94.9630000000	42
94.9930000000	41
95.0230000000	37
95.0530000000	34
95.0830000000	35
95.1130000000	42
95.1430000000	45
95.1730000000	50
95.2030000000	47
95.2330000000	43
95.2630000000	26
95.2930000000	44
95.3230000000	37
95.3530000000	27
95.3830000000	36
95.4130000000	29
95.4430000000	36
95.4730000000	41
95.5030000000	47
95.5330000000	52
95.5630000000	31
95.5930000000	53
95.6230000000	44
95.6530000000	50
95.6830000000	36
95.7130000000	37
95.7430000000	36
95.7730000000	41
95.8030000000	37
95.8330000000	28
95.8630000000	35
95.8930000000	33
95.9230000000	47
95.9530000000	41
95.9830000000	41
96.0130000000	42
96.0430000000	39
96.0730000000	31
96.1030000000	28
96.1330000000	47
96.1630000000	43
96.1930000000	37
96.2230000000	35
96.2530000000	45
96.2830000000	29
96.3130000000	44
96.3430000000	32
96.3730000000	34
96.4030000000	36
96.4330000000	44
96.4630000000	31
96.4930000000	38
96.5230000000	42
96.5530000000	37
96.5830000000	42
96.6130000000	39
96.6430000000	35
96.6730000000	33
96.7030000000	32
96.7330000000	40
96.7630000000	36
96.7930000000	40
96.8230000000	30
96.8530000000	44
96.8830000000	43
96.9130000000	31
96.9430000000	44
96.9730000000	40
97.0030000000	47
97.0330000000	40
97.0630000000	37
97.0930000000	35
97.1230000000	44
97.1530000000	33
97.1830000000	33
97.2130000000	37
97.2430000000	36
97.2730000000	40
97.3030000000	40
97.3330000000	45
97.3630000000	32
97.3930000000	27
97.4230000000	35
97.4530000000	35
97.4830000000	41
97.5130000000	50
97.5430000000	28
97.5730000000	27
97.6030000000	33
97.6330000000	25
97.6630000000	31
97.6930000000	35
97.7230000000	33
97.7530000000	37
97.7830000000	34
97.8130000000	39
97.8430000000	29
97.8730000000	40
97.9030000000	30
97.9330000000	34
97.9630000000	36
97.9930000000	43
98.0230000000	35
98.0530000000	42
98.0830000000	27
98.1130000000	38
98.1430000000	34
98.1730000000	27
98.2030000000	34
98.2330000000	34
98.2630000000	44
98.2930000000	45
98.3230000000	29
98.3530000000	40
98.3830000000	37
98.4130000000	33
98.4430000000	28
98.4730000000	48
98.5030000000	37
98.5330000000	33
98.5630000000	43
98.5930000000	36
98.6230000000	45
98.6530000000	39
98.6830000000	43
98.7130000000	44
98.7430000000	47
98.7730000000	44
98.8030000000	43
98.8330000000	52
98.8630000000	42
98.8930000000	40
98.9230000000	39
98.9530000000	36
98.9830000000	42
99.0130000000	41
99.0430000000	38
99.0730000000	50
99.1030000000	40
99.1330000000	24
99.1630000000	37
99.1930000000	36
99.2230000000	41
99.2530000000	31
99.2830000000	35
99.3130000000	44
99.3430000000	45
99.3730000000	40
99.4030000000	47
99.4330000000	41
99.4630000000	43
99.4930000000	38
99.5230000000	30
99.5530000000	24
99.5830000000	38
99.6130000000	33
99.6430000000	29
99.6730000000	36
99.7030000000	43
99.7330000000	33
99.7630000000	30
99.7930000000	42
99.8230000000	34
99.8530000000	45
99.8830000000	40
99.9130000000	34
99.9430000000	34
99.9730000000	43
100.0030000000	41
100.0330000000	28
100.0630000000	37
100.0930000000	37
100.1230000000	27
100.1530000000	32
100.1830000000	41
100.2130000000	39
100.2430000000	31
100.2730000000	33
100.3030000000	41
100.3330000000	39
100.3630000000	42
100.3930000000	29
100.4230000000	27
100.4530000000	34
100.4830000000	34
100.5130000000	31
100.5430000000	42
100.5730000000	34
100.6030000000	25
100.6330000000	35
100.6630000000	29
100.6930000000	33
100.7230000000	34
100.7530000000	32
100.7830000000	38
100.8130000000	34
100.8430000000	32
100.8730000000	35
100.9030000000	31
100.9330000000	32
100.9630000000	43
100.9930000000	35
101.0230000000	31
101.0530000000	46
101.0830000000	36
101.1130000000	36
101.1430000000	31
101.1730000000	28
101.2030000000	33
101.2330000000	28
101.2630000000	51
101.2930000000	40
101.3230000000	43
101.3530000000	44
101.3830000000	32
101.4130000000	37
101.4430000000	39
101.4730000000	37
101.5030000000	31
101.5330000000	39
101.5630000000	48
101.5930000000	36
101.6230000000	27
101.6530000000	30
101.6830000000	38
101.7130000000	45
101.7430000000	36
101.7730000000	50
101.8030000000	34
101.8330000000	36
101.8630000000	35
101.8930000000	40
101.9230000000	42
101.9530000000	27
101.9830000000	33
102.0130000000	40
102.0430000000	38
102.0730000000	31
102.1030000000	37
102.1330000000	34
102.1630000000	30
102.1930000000	38
102.2230000000	25
102.2530000000	35
102.2830000000	28
102.3130000000	27
102.3430000000	30
102.3730000000	32
102.4030000000	41
102.4330000000	34
102.4630000000	26
102.4930000000	53
102.5230000000	41
102.5530000000	33
102.5830000000	36
102.6130000000	27
102.6430000000	35
102.6730000000	40
102.7030000000	36
102.7330000000	35
102.7630000000	30
102.7930000000	38
102.8230000000	37
102.8530000000	34
102.8830000000	41
102.9130000000	36
102.9430000000	44
102.9730000000	36
103.0030000000	28
103.0330000000	38
103.0630000000	34
103.0930000000	36
103.1230000000	39
103.1530000000	39
103.1830000000	38
103.2130000000	34
103.2430000000	36
103.2730000000	33
103.3030000000	31
103.3330000000	44
103.3630000000	38
103.3930000000	31
103.4230000000	47
103.4530000000	32
103.4830000000	42
103.5130000000	32
103.5430000000	31
103.5730000000	44
103.6030000000	32
103.6330000000	33
103.6630000000	40
103.6930000000	30
103.7230000000	43
103.7530000000	36
103.7830000000	34
103.8130000000	37
103.8430000000	45
103.8730000000	27
103.9030000000	31
103.9330000000	48
103.9630000000	31
103.9930000000	32
104.0230000000	42
104.0530000000	52
104.0830000000	40
104.1130000000	47
104.1430000000	48
104.1730000000	42
104.2030000000	43
104.2330000000	55
104.2630000000	46
104.2930000000	38
104.3230000000	35
104.3530000000	47
104.3830000000	44
104.4130000000	46
104.4430000000	39
104.4730000000	43
104.5030000000	34
104.5330000000	42
104.5630000000	46
104.5930000000	38
104.6230000000	34
104.6530000000	40
104.6830000000	35
104.7130000000	24
104.7430000000	37
104.7730000000	39
104.8030000000	37
104.8330000000	43
104.8630000000	33
104.8930000000	25
104.9230000000	33
104.9530000000	36
104.9830000000	40
105.0130000000	48
105.0430000000	41
105.0730000000	42
105.1030000000	40
105.1330000000	39
105.1630000000	40
105.1930000000	34
105.2230000000	42
105.2530000000	35
105.2830000000	41
105.3130000000	36
105.3430000000	44
105.3730000000	35
105.4030000000	38
105.4330000000	33
105.4630000000	35
105.4930000000	39
105.5230000000	38
105.5530000000	31
105.5830000000	39
105.6130000000	39
105.6430000000	33
105.6730000000	41
105.7030000000	32
105.7330000000	42
105.7630000000	44
105.7930000000	37
105.8230000000	41
105.8530000000	29
105.8830000000	28
105.9130000000	38
105.9430000000	34
105.9730000000	39
106.0030000000	32
106.0330000000	31
106.0630000000	39
106.0930000000	28
106.1230000000	48
106.1530000000	44
106.1830000000	24
106.2130000000	39
106.2430000000	34
106.2730000000	28
106.3030000000	46
106.3330000000	40
106.3630000000	37
106.3930000000	37
106.4230000000	33
106.4530000000	33
106.4830000000	50
106.5130000000	36
106.5430000000	31
106.5730000000	30
106.6030000000	41
106.6330000000	44
106.6630000000	37
106.6930000000	37
106.7230000000	33
106.7530000000	30
106.7830000000	39
106.8130000000	29
106.8430000000	29
106.8730000000	35
106.9030000000	30
106.9330000000	38
106.9630000000	39
106.9930000000	36
107.0230000000	29
107.0530000000	32
107.0830000000	43
107.1130000000	29
107.1430000000	25
107.1730000000	34
107.2030000000	37
107.2330000000	30
107.2630000000	38
107.2930000000	30
107.3230000000	37
107.3530000000	39
107.3830000000	39
107.4130000000	40
107.4430000000	35
107.4730000000	37
107.5030000000	31
107.5330000000	38
107.5630000000	43
107.5930000000	43
107.6230000000	35
107.6530000000	29
107.6830000000	36
107.7130000000	40
107.7430000000	38
107.7730000000	46
107.8030000000	41
107.8330000000	33
107.8630000000	35
107.8930000000	34
107.9230000000	36
107.9530000000	38
107.9830000000	35
108.0130000000	33
108.0430000000	28
108.0730000000	32
108.1030000000	38
108.1330000000	32
108.1630000000	51
108.1930000000	43
108.2230000000	46
108.2530000000	53
108.2830000000	33
108.3130000000	47
108.3430000000	44
108.3730000000	36
108.4030000000	33
108.4330000000	34
108.4630000000	43
108.4930000000	42
108.5230000000	38
108.5530000000	47
108.5830000000	52
108.6130000000	56
108.6430000000	61
108.6730000000	53
108.7030000000	54
108.7330000000	40
108.7630000000	46
108.7930000000	43
108.8230000000	43
108.8530000000	38
108.8830000000	48
108.9130000000	36
108.9430000000	41
108.9730000000	48
109.0030000000	50
109.0330000000	57
109.0630000000	54
109.0930000000	67
109.1230000000	50
109.1530000000	49
109.1830000000	34
109.2130000000	53
109.2430000000	47
109.2730000000	37
109.3030000000	46
109.3330000000	49
109.3630000000	55
109.3930000000	48
109.4230000000	32
109.4530000000	49
109.4830000000	41
109.5130000000	44
109.5430000000	47
109.5730000000	43
109.6030000000	35
109.6330000000	28
109.6630000000	41
109.6930000000	36
109.7230000000	33
109.7530000000	33
109.7830000000	29
109.8130000000	49
109.8430000000	33
109.8730000000	41
109.9030000000	19
109.9330000000	41
109.9630000000	38
109.9930000000	39
110.0230000000	28
110.0530000000	34
110.0830000000	34
110.1130000000	29
110.1430000000	44
110.1730000000	32
110.2030000000	38
110.2330000000	34
110.2630000000	40
110.2930000000	49
110.3230000000	35
110.3530000000	35
110.3830000000	42
110.4130000000	44
110.4430000000	39
110.4730000000	41
110.5030000000	42
110.5330000000	41
110.5630000000	34
110.5930000000	34
110.6230000000	32
110.6530000000	33
110.6830000000	36
110.7130000000	28
110.7430000000	53
110.7730000000	44
110.8030000000	43
110.8330000000	48
110.8630000000	41
110.8930000000	37
110.9230000000	36
110.9530000000	41
110.9830000000	44
111.0130000000	40
111.0430000000	29
111.0730000000	38
111.1030000000	36
111.1330000000	30
111.1630000000	38
111.1930000000	47
111.2230000000	53
111.2530000000	42
111.2830000000	56
111.3130000000	47
111.3430000000	42
111.3730000000	52
111.4030000000	36
111.4330000000	34
111.4630000000	31
111.4930000000	32
111.5230000000	33
111.5530000000	34
111.5830000000	42
111.6130000000	40
111.6430000000	38
111.6730000000	44
111.7030000000	29
111.7330000000	25
111.7630000000	38
111.7930000000	39
111.8230000000	44
111.8530000000	35
111.8830000000	32
111.9130000000	41
111.9430000000	43
111.9730000000	42
112.0030000000	35
112.0330000000	30
112.0630000000	50
112.0930000000	36
112.1230000000	39
112.1530000000	39
112.1830000000	31
112.2130000000	35
112.2430000000	29
112.2730000000	40
112.3030000000	30
112.3330000000	44
112.3630000000	36
112.3930000000	40
112.4230000000	30
112.4530000000	34
112.4830000000	40
112.5130000000	36
112.5430000000	32
112.5730000000	41
112.6030000000	41
112.6330000000	40
112.6630000000	39
112.6930000000	44
112.7230000000	43
112.7530000000	39
112.7830000000	39
112.8130000000	39
112.8430000000	40
112.8730000000	52
112.9030000000	40
112.9330000000	30
112.9630000000	33
112.9930000000	44
113.0230000000	31
113.0530000000	36
113.0830000000	29
113.1130000000	38
113.1430000000	37
113.1730000000	36
113.2030000000	43
113.2330000000	36
113.2630000000	31
113.2930000000	32
113.3230000000	40
113.3530000000	38
113.3830000000	36
113.4130000000	38
113.4430000000	39
113.4730000000	36
113.5030000000	30
113.5330000000	39
113.5630000000	40
113.5930000000	34
113.6230000000	43
113.6530000000	41
113.6830000000	35
113.7130000000	36
113.7430000000	38
113.7730000000	40
113.8030000000	32
113.8330000000	40
113.8630000000	42
113.8930000000	32
113.9230000000	29
113.9530000000	35
113.9830000000	28
114.0130000000	35
114.0430000000	30
114.0730000000	42
114.1030000000	41
114.1330000000	40
114.1630000000	37
114.1930000000	30
114.2230000000	35
114.2530000000	37
114.2830000000	38
114.3130000000	42
114.3430000000	38
114.3730000000	35
114.4030000000	37
114.4330000000	51
114.4630000000	1
114.4930000000	1
114.5230000000	1
114.5530000000	1
114.5830000000	1
