0.3130000000	1
0.3430000000	1
0.3730000000	1
0.4030000000	1
0.4330000000	1
0.4630000000	1
0.4930000000	1
0.5230000000	1
0.5530000000	1
0.5830000000	2
0.6130000000	1
0.6430000000	1
0.6730000000	1
0.7030000000	1
0.7330000000	1
0.7630000000	1
0.7930000000	1
0.8230000000	1
0.8530000000	1
0.8830000000	2
0.9130000000	1
0.9430000000	1
0.9730000000	1
1.0030000000	1
1.0330000000	1
1.0630000000	1
1.0930000000	1
1.1230000000	2
1.1530000000	2
1.1830000000	1
1.2130000000	1
1.2430000000	1
1.2730000000	2
1.3030000000	1
1.3330000000	2
1.3630000000	1
1.3930000000	1
1.4230000000	1
1.4530000000	1
1.4830000000	1
1.5130000000	1
1.5430000000	1
1.5730000000	2
1.6030000000	1
1.6330000000	1
1.6630000000	2
1.6930000000	2
1.7230000000	1
1.7530000000	1
1.7830000000	1
1.8130000000	1
1.8430000000	1
1.8730000000	1
1.9030000000	1
1.9330000000	2
1.9630000000	1
1.9930000000	1
2.0230000000	1
2.0530000000	2
2.0830000000	1
2.1130000000	2
2.1430000000	2
2.1730000000	1
2.2030000000	2
2.2330000000	1
2.2630000000	1
2.2930000000	2
2.3230000000	2
2.3530000000	2
2.3830000000	1
2.4130000000	1
2.4430000000	1
2.4730000000	2
2.5030000000	2
2.5330000000	1
2.5630000000	1
2.5930000000	1
2.6230000000	1
2.6530000000	1
2.6830000000	2
2.7130000000	1
2.7430000000	1
2.7730000000	1
2.8030000000	2
2.8330000000	2
2.8630000000	2
2.8930000000	1
2.9230000000	3
2.9530000000	1
2.9830000000	1
3.0130000000	1
3.0430000000	2
3.0730000000	3
3.1030000000	1
3.1330000000	1
3.1630000000	2
3.1930000000	1
3.2230000000	3
3.2530000000	3
3.2830000000	2
3.3130000000	1
3.3430000000	2
3.3730000000	3
3.4030000000	1
3.4330000000	1
3.4630000000	3
3.4930000000	1
3.5230000000	1
3.5530000000	1
3.5830000000	1
3.6130000000	3
3.6430000000	3
3.6730000000	2
3.7030000000	2
3.7330000000	1
3.7630000000	1
3.7930000000	2
3.8230000000	3
3.8530000000	2
3.8830000000	2
3.9130000000	2
3.9430000000	3
3.9730000000	3
4.0030000000	3
4.0330000000	2
4.0630000000	5
4.0930000000	2
4.1230000000	3
4.1530000000	4
4.1830000000	4
4.2130000000	1
4.2430000000	3
4.2730000000	2
4.3030000000	2
4.3330000000	2
4.3630000000	3
4.3930000000	2
4.4230000000	6
4.4530000000	10
4.4830000000	13
4.5130000000	12
4.5430000000	47
4.5730000000	60
4.6030000000	79
4.6330000000	101
4.6630000000	105
4.6930000000	137
4.7230000000	121
4.7530000000	139
4.7830000000	113
4.8130000000	147
4.8430000000	130
4.8730000000	135
4.9030000000	152
4.9330000000	141
4.9630000000	129
4.9930000000	148
5.0230000000	136
5.0530000000	139
5.0830000000	147
5.1130000000	134
5.1430000000	136
5.1730000000	136
5.2030000000	142
5.2330000000	135
5.2630000000	122
5.2930000000	146
5.3230000000	131
5.3530000000	117
5.3830000000	141
5.4130000000	150
5.4430000000	121
5.4730000000	153
5.5030000000	136
5.5330000000	141
5.5630000000	154
5.5930000000	144
5.6230000000	163
5.6530000000	157
5.6830000000	139
5.7130000000	138
5.7430000000	161
5.7730000000	147
5.8030000000	144
5.8330000000	139
5.8630000000	157
5.8930000000	151
5.9230000000	147
5.9530000000	130
5.9830000000	140
6.0130000000	135
6.0430000000	145
6.0730000000	124
6.1030000000	147
6.1330000000	160
6.1630000000	159
6.1930000000	137
6.2230000000	156
6.2530000000	158
6.2830000000	155
6.3130000000	130
6.3430000000	155
6.3730000000	156
6.4030000000	148
6.4330000000	137
6.4630000000	162
6.4930000000	152
6.5230000000	132
6.5530000000	145
6.5830000000	140
6.6130000000	162
6.6430000000	142
6.6730000000	154
6.7030000000	158
6.7330000000	133
6.7630000000	163
6.7930000000	163
6.8230000000	146
6.8530000000	163
6.8830000000	162
6.9130000000	138
6.9430000000	134
6.9730000000	159
7.0030000000	146
7.0330000000	142
7.0630000000	144
7.0930000000	142
7.1230000000	121
7.1530000000	136
7.1830000000	150
7.2130000000	141
7.2430000000	149
7.2730000000	146
7.3030000000	137
7.3330000000	140
7.3630000000	132
7.3930000000	136
7.4230000000	151
7.4530000000	153
7.4830000000	140
7.5130000000	150
7.5430000000	157
7.5730000000	142
7.6030000000	135
7.6330000000	131
7.6630000000	139
7.6930000000	133
7.7230000000	134
7.7530000000	152
7.7830000000	143
7.8130000000	128
7.8430000000	145
7.8730000000	148
7.9030000000	136
7.9330000000	139
7.9630000000	145
7.9930000000	152
8.0230000000	138
8.0530000000	135
8.0830000000	135
8.1130000000	127
8.1430000000	156
8.1730000000	153
8.2030000000	139
8.2330000000	156
8.2630000000	148
8.2930000000	148
8.3230000000	151
8.3530000000	132
8.3830000000	122
8.4130000000	150
8.4430000000	153
8.4730000000	132
8.5030000000	149
8.5330000000	147
8.5630000000	139
8.5930000000	143
8.6230000000	155
8.6530000000	147
8.6830000000	129
8.7130000000	142
8.7430000000	150
8.7730000000	146
8.8030000000	155
8.8330000000	158
8.8630000000	142
8.8930000000	153
8.9230000000	152
8.9530000000	127
8.9830000000	127
9.0130000000	145
9.0430000000	138
9.0730000000	145
9.1030000000	146
9.1330000000	146
9.1630000000	148
9.1930000000	161
9.2230000000	131
9.2530000000	149
9.2830000000	148
9.3130000000	156
9.3430000000	145
9.3730000000	161
9.4030000000	164
9.4330000000	127
9.4630000000	109
9.4930000000	136
9.5230000000	144
9.5530000000	136
9.5830000000	141
9.6130000000	126
9.6430000000	154
9.6730000000	153
9.7030000000	160
9.7330000000	142
9.7630000000	160
9.7930000000	143
9.8230000000	145
9.8530000000	129
9.8830000000	168
9.9130000000	161
9.9430000000	144
9.9730000000	155
10.0030000000	139
10.0330000000	139
10.0630000000	143
10.0930000000	146
10.1230000000	131
10.1530000000	157
10.1830000000	132
10.2130000000	157
10.2430000000	150
10.2730000000	141
10.3030000000	133
10.3330000000	145
10.3630000000	150
10.3930000000	155
10.4230000000	140
10.4530000000	126
10.4830000000	141
10.5130000000	146
10.5430000000	170
10.5730000000	189
10.6030000000	166
10.6330000000	150
10.6630000000	154
10.6930000000	141
10.7230000000	131
10.7530000000	130
10.7830000000	144
10.8130000000	148
10.8430000000	149
10.8730000000	151
10.9030000000	146
10.9330000000	141
10.9630000000	152
10.9930000000	135
11.0230000000	142
11.0530000000	150
11.0830000000	158
11.1130000000	155
11.1430000000	126
11.1730000000	124
11.2030000000	142
11.2330000000	143
11.2630000000	153
11.2930000000	144
11.3230000000	144
11.3530000000	152
11.3830000000	148
11.4130000000	144
11.4430000000	127
11.4730000000	155
11.5030000000	151
11.5330000000	158
11.5630000000	136
11.5930000000	140
11.6230000000	157
11.6530000000	146
11.6830000000	133
11.7130000000	143
11.7430000000	140
11.7730000000	138
11.8030000000	163
11.8330000000	159
11.8630000000	151
11.8930000000	157
11.9230000000	144
11.9530000000	126
11.9830000000	142
12.0130000000	148
12.0430000000	136
12.0730000000	146
12.1030000000	136
12.1330000000	154
12.1630000000	169
12.1930000000	166
12.2230000000	178
12.2530000000	143
12.2830000000	125
12.3130000000	140
12.3430000000	172
12.3730000000	142
12.4030000000	134
12.4330000000	125
12.4630000000	143
12.4930000000	161
12.5230000000	163
12.5530000000	143
12.5830000000	149
12.6130000000	145
12.6430000000	159
12.6730000000	134
12.7030000000	129
12.7330000000	139
12.7630000000	144
12.7930000000	162
12.8230000000	160
12.8530000000	158
12.8830000000	146
12.9130000000	143
12.9430000000	143
12.9730000000	160
13.0030000000	162
13.0330000000	140
13.0630000000	147
13.0930000000	155
13.1230000000	148
13.1530000000	127
13.1830000000	129
13.2130000000	137
13.2430000000	144
13.2730000000	111
13.3030000000	139
13.3330000000	144
13.3630000000	136
13.3930000000	164
13.4230000000	140
13.4530000000	138
13.4830000000	142
13.5130000000	141
13.5430000000	155
13.5730000000	158
13.6030000000	148
13.6330000000	127
13.6630000000	147
13.6930000000	144
13.7230000000	145
13.7530000000	158
13.7830000000	150
13.8130000000	120
13.8430000000	154
13.8730000000	144
13.9030000000	147
13.9330000000	174
13.9630000000	155
13.9930000000	159
14.0230000000	129
14.0530000000	160
14.0830000000	126
14.1130000000	149
14.1430000000	153
14.1730000000	138
14.2030000000	133
14.2330000000	140
14.2630000000	134
14.2930000000	147
14.3230000000	144
14.3530000000	118
14.3830000000	129
14.4130000000	146
14.4430000000	149
14.4730000000	169
14.5030000000	151
14.5330000000	162
14.5630000000	142
14.5930000000	157
14.6230000000	160
14.6530000000	119
14.6830000000	154
14.7130000000	153
14.7430000000	160
14.7730000000	180
14.8030000000	157
14.8330000000	140
14.8630000000	151
14.8930000000	146
14.9230000000	127
14.9530000000	136
14.9830000000	159
15.0130000000	183
15.0430000000	147
15.0730000000	143
15.1030000000	137
15.1330000000	172
15.1630000000	151
15.1930000000	167
15.2230000000	155
15.2530000000	156
15.2830000000	151
15.3130000000	152
15.3430000000	171
15.3730000000	142
15.4030000000	150
15.4330000000	133
15.4630000000	147
15.4930000000	165
15.5230000000	150
15.5530000000	151
15.5830000000	151
15.6130000000	144
15.6430000000	142
15.6730000000	155
15.7030000000	144
15.7330000000	147
15.7630000000	152
15.7930000000	147
15.8230000000	146
15.8530000000	146
15.8830000000	131
15.9130000000	137
15.9430000000	151
15.9730000000	146
16.0030000000	145
16.0330000000	133
16.0630000000	134
16.0930000000	150
16.1230000000	144
16.1530000000	145
16.1830000000	128
16.2130000000	132
16.2430000000	149
16.2730000000	169
16.3030000000	135
16.3330000000	151
16.3630000000	159
16.3930000000	150
16.4230000000	155
16.4530000000	160
16.4830000000	141
16.5130000000	141
16.5430000000	158
16.5730000000	142
16.6030000000	136
16.6330000000	138
16.6630000000	143
16.6930000000	150
16.7230000000	146
16.7530000000	140
16.7830000000	138
16.8130000000	161
16.8430000000	167
16.8730000000	147
16.9030000000	148
16.9330000000	144
16.9630000000	124
16.9930000000	132
17.0230000000	152
17.0530000000	144
17.0830000000	145
17.1130000000	165
17.1430000000	169
17.1730000000	157
17.2030000000	153
17.2330000000	153
17.2630000000	158
17.2930000000	151
17.3230000000	143
17.3530000000	139
17.3830000000	142
17.4130000000	136
17.4430000000	143
17.4730000000	150
17.5030000000	153
17.5330000000	149
17.5630000000	145
17.5930000000	153
17.6230000000	165
17.6530000000	157
17.6830000000	135
17.7130000000	153
17.7430000000	157
17.7730000000	140
17.8030000000	132
17.8330000000	134
17.8630000000	143
17.8930000000	139
17.9230000000	130
17.9530000000	143
17.9830000000	150
18.0130000000	136
18.0430000000	142
18.0730000000	155
18.1030000000	128
18.1330000000	134
18.1630000000	148
18.1930000000	131
18.2230000000	149
18.2530000000	154
18.2830000000	128
18.3130000000	127
18.3430000000	118
18.3730000000	139
18.4030000000	143
18.4330000000	140
18.4630000000	102
18.4930000000	157
18.5230000000	138
18.5530000000	128
18.5830000000	168
18.6130000000	143
18.6430000000	139
18.6730000000	139
18.7030000000	154
18.7330000000	138
18.7630000000	135
18.7930000000	159
18.8230000000	141
18.8530000000	160
18.8830000000	141
18.9130000000	146
18.9430000000	150
18.9730000000	159
19.0030000000	149
19.0330000000	144
19.0630000000	135
19.0930000000	153
19.1230000000	158
19.1530000000	176
19.1830000000	147
19.2130000000	149
19.2430000000	147
19.2730000000	156
19.3030000000	144
19.3330000000	153
19.3630000000	178
19.3930000000	172
19.4230000000	215
19.4530000000	238
19.4830000000	274
19.5130000000	294
19.5430000000	342
19.5730000000	342
19.6030000000	360
19.6330000000	321
19.6630000000	220
19.6930000000	181
19.7230000000	183
19.7530000000	148
19.7830000000	166
19.8130000000	164
19.8430000000	135
19.8730000000	146
19.9030000000	159
19.9330000000	159
19.9630000000	149
19.9930000000	153
20.0230000000	136
20.0530000000	150
20.0830000000	142
20.1130000000	157
20.1430000000	146
20.1730000000	159
20.2030000000	143
20.2330000000	140
20.2630000000	149
20.2930000000	156
20.3230000000	167
20.3530000000	167
20.3830000000	174
20.4130000000	169
20.4430000000	140
20.4730000000	146
20.5030000000	137
20.5330000000	141
20.5630000000	158
20.5930000000	152
20.6230000000	141
20.6530000000	165
20.6830000000	158
20.7130000000	152
20.7430000000	144
20.7730000000	154
20.8030000000	129
20.8330000000	151
20.8630000000	171
20.8930000000	158
20.9230000000	153
20.9530000000	160
20.9830000000	151
21.0130000000	166
21.0430000000	156
21.0730000000	160
21.1030000000	151
21.1330000000	149
21.1630000000	155
21.1930000000	160
21.2230000000	154
21.2530000000	148
21.2830000000	162
21.3130000000	152
21.3430000000	155
21.3730000000	158
21.4030000000	137
21.4330000000	150
21.4630000000	173
21.4930000000	172
21.5230000000	156
21.5530000000	160
21.5830000000	186
21.6130000000	151
21.6430000000	160
21.6730000000	161
21.7030000000	165
21.7330000000	164
21.7630000000	170
21.7930000000	161
21.8230000000	182
21.8530000000	159
21.8830000000	152
21.9130000000	168
21.9430000000	153
21.9730000000	145
22.0030000000	160
22.0330000000	166
22.0630000000	162
22.0930000000	167
22.1230000000	176
22.1530000000	162
22.1830000000	145
22.2130000000	150
22.2430000000	145
22.2730000000	162
22.3030000000	167
22.3330000000	177
22.3630000000	172
22.3930000000	165
22.4230000000	157
22.4530000000	166
22.4830000000	166
22.5130000000	177
22.5430000000	179
22.5730000000	175
22.6030000000	188
22.6330000000	207
22.6630000000	220
22.6930000000	213
22.7230000000	242
22.7530000000	254
22.7830000000	206
22.8130000000	188
22.8430000000	210
22.8730000000	200
22.9030000000	180
22.9330000000	161
22.9630000000	192
22.9930000000	161
23.0230000000	176
23.0530000000	173
23.0830000000	180
23.1130000000	158
23.1430000000	169
23.1730000000	186
23.2030000000	147
23.2330000000	169
23.2630000000	143
23.2930000000	155
23.3230000000	193
23.3530000000	153
23.3830000000	160
23.4130000000	175
23.4430000000	151
23.4730000000	168
23.5030000000	135
23.5330000000	159
23.5630000000	181
23.5930000000	173
23.6230000000	193
23.6530000000	160
23.6830000000	166
23.7130000000	142
23.7430000000	178
23.7730000000	157
23.8030000000	161
23.8330000000	161
23.8630000000	152
23.8930000000	153
23.9230000000	159
23.9530000000	159
23.9830000000	169
24.0130000000	177
24.0430000000	156
24.0730000000	166
24.1030000000	142
24.1330000000	153
24.1630000000	171
24.1930000000	162
24.2230000000	182
24.2530000000	144
24.2830000000	153
24.3130000000	157
24.3430000000	162
24.3730000000	178
24.4030000000	160
24.4330000000	155
24.4630000000	153
24.4930000000	187
24.5230000000	175
24.5530000000	173
24.5830000000	177
24.6130000000	165
24.6430000000	154
24.6730000000	150
24.7030000000	137
24.7330000000	154
24.7630000000	163
24.7930000000	172
24.8230000000	175
24.8530000000	160
24.8830000000	164
24.9130000000	176
24.9430000000	141
24.9730000000	188
25.0030000000	184
25.0330000000	160
25.0630000000	150
25.0930000000	165
25.1230000000	156
25.1530000000	198
25.1830000000	151
25.2130000000	163
25.2430000000	164
25.2730000000	165
25.3030000000	167
25.3330000000	134
25.3630000000	164
25.3930000000	183
25.4230000000	182
25.4530000000	192
25.4830000000	158
25.5130000000	155
25.5430000000	186
25.5730000000	191
25.6030000000	172
25.6330000000	164
25.6630000000	140
25.6930000000	173
25.7230000000	169
25.7530000000	173
25.7830000000	155
25.8130000000	148
25.8430000000	153
25.8730000000	176
25.9030000000	159
25.9330000000	175
25.9630000000	159
25.9930000000	169
26.0230000000	157
26.0530000000	186
26.0830000000	166
26.1130000000	163
26.1430000000	158
26.1730000000	196
26.2030000000	197
26.2330000000	237
26.2630000000	299
26.2930000000	384
26.3230000000	518
26.3530000000	670
26.3830000000	870
26.4130000000	969
26.4430000000	968
26.4730000000	796
26.5030000000	597
26.5330000000	443
26.5630000000	343
26.5930000000	277
26.6230000000	230
26.6530000000	205
26.6830000000	203
26.7130000000	189
26.7430000000	185
26.7730000000	178
26.8030000000	164
26.8330000000	164
26.8630000000	167
26.8930000000	157
26.9230000000	154
26.9530000000	154
26.9830000000	163
27.0130000000	164
27.0430000000	145
27.0730000000	136
27.1030000000	145
27.1330000000	142
27.1630000000	133
27.1930000000	150
27.2230000000	161
27.2530000000	157
27.2830000000	164
27.3130000000	143
27.3430000000	153
27.3730000000	136
27.4030000000	168
27.4330000000	167
27.4630000000	159
27.4930000000	156
27.5230000000	130
27.5530000000	151
27.5830000000	150
27.6130000000	149
27.6430000000	155
27.6730000000	144
27.7030000000	112
27.7330000000	154
27.7630000000	147
27.7930000000	151
27.8230000000	159
27.8530000000	166
27.8830000000	161
27.9130000000	142
27.9430000000	160
27.9730000000	151
28.0030000000	154
28.0330000000	163
28.0630000000	140
28.0930000000	145
28.1230000000	163
28.1530000000	141
28.1830000000	136
28.2130000000	152
28.2430000000	155
28.2730000000	131
28.3030000000	150
28.3330000000	150
28.3630000000	168
28.3930000000	165
28.4230000000	141
28.4530000000	133
28.4830000000	149
28.5130000000	154
28.5430000000	145
28.5730000000	138
28.6030000000	155
28.6330000000	136
28.6630000000	168
28.6930000000	149
28.7230000000	131
28.7530000000	130
28.7830000000	165
28.8130000000	174
28.8430000000	161
28.8730000000	170
28.9030000000	137
28.9330000000	153
28.9630000000	146
28.9930000000	149
29.0230000000	141
29.0530000000	155
29.0830000000	103
29.1130000000	133
29.1430000000	147
29.1730000000	122
29.2030000000	127
29.2330000000	144
29.2630000000	128
29.2930000000	113
29.3230000000	145
29.3530000000	135
29.3830000000	138
29.4130000000	110
29.4430000000	136
29.4730000000	127
29.5030000000	123
29.5330000000	142
29.5630000000	143
29.5930000000	118
29.6230000000	120
29.6530000000	133
29.6830000000	113
29.7130000000	142
29.7430000000	138
29.7730000000	145
29.8030000000	145
29.8330000000	124
29.8630000000	148
29.8930000000	125
29.9230000000	158
29.9530000000	152
29.9830000000	151
30.0130000000	154
30.0430000000	154
30.0730000000	148
30.1030000000	156
30.1330000000	180
30.1630000000	188
30.1930000000	257
30.2230000000	351
30.2530000000	510
30.2830000000	764
30.3130000000	1059
30.3430000000	1708
30.3730000000	2351
30.4030000000	2846
30.4330000000	2716
30.4630000000	2293
30.4930000000	1585
30.5230000000	1083
30.5530000000	636
30.5830000000	457
30.6130000000	305
30.6430000000	218
30.6730000000	218
30.7030000000	163
30.7330000000	158
30.7630000000	138
30.7930000000	158
30.8230000000	153
30.8530000000	140
30.8830000000	129
30.9130000000	144
30.9430000000	150
30.9730000000	126
31.0030000000	130
31.0330000000	132
31.0630000000	119
31.0930000000	135
31.1230000000	139
31.1530000000	125
31.1830000000	156
31.2130000000	130
31.2430000000	152
31.2730000000	124
31.3030000000	130
31.3330000000	122
31.3630000000	140
31.3930000000	126
31.4230000000	110
31.4530000000	132
31.4830000000	125
31.5130000000	129
31.5430000000	128
31.5730000000	143
31.6030000000	150
31.6330000000	155
31.6630000000	190
31.6930000000	244
31.7230000000	359
31.7530000000	476
31.7830000000	684
31.8130000000	947
31.8430000000	1378
31.8730000000	1624
31.9030000000	1716
31.9330000000	1498
31.9630000000	1214
31.9930000000	992
32.0230000000	936
32.0530000000	1011
32.0830000000	1085
32.1130000000	1195
32.1430000000	1142
32.1730000000	984
32.2030000000	817
32.2330000000	572
32.2630000000	403
32.2930000000	285
32.3230000000	213
32.3530000000	160
32.3830000000	145
32.4130000000	144
32.4430000000	132
32.4730000000	128
32.5030000000	122
32.5330000000	121
32.5630000000	108
32.5930000000	133
32.6230000000	122
32.6530000000	120
32.6830000000	101
32.7130000000	120
32.7430000000	106
32.7730000000	113
32.8030000000	100
32.8330000000	116
32.8630000000	119
32.8930000000	119
32.9230000000	121
32.9530000000	127
32.9830000000	115
33.0130000000	108
33.0430000000	112
33.0730000000	111
33.1030000000	107
33.1330000000	102
33.1630000000	118
33.1930000000	119
33.2230000000	129
33.2530000000	139
33.2830000000	144
33.3130000000	138
33.3430000000	121
33.3730000000	112
33.4030000000	135
33.4330000000	116
33.4630000000	106
33.4930000000	111
33.5230000000	105
33.5530000000	107
33.5830000000	113
33.6130000000	98
33.6430000000	101
33.6730000000	102
33.7030000000	122
33.7330000000	104
33.7630000000	103
33.7930000000	107
33.8230000000	95
33.8530000000	105
33.8830000000	112
33.9130000000	96
33.9430000000	95
33.9730000000	92
34.0030000000	91
34.0330000000	103
34.0630000000	93
34.0930000000	111
34.1230000000	97
34.1530000000	102
34.1830000000	107
34.2130000000	91
34.2430000000	98
34.2730000000	98
34.3030000000	100
34.3330000000	94
34.3630000000	97
34.3930000000	118
34.4230000000	103
34.4530000000	95
34.4830000000	93
34.5130000000	100
34.5430000000	94
34.5730000000	91
34.6030000000	87
34.6330000000	100
34.6630000000	106
34.6930000000	88
34.7230000000	81
34.7530000000	84
34.7830000000	84
34.8130000000	92
34.8430000000	112
34.8730000000	79
34.9030000000	90
34.9330000000	103
34.9630000000	110
34.9930000000	99
35.0230000000	103
35.0530000000	108
35.0830000000	119
35.1130000000	99
35.1430000000	120
35.1730000000	124
35.2030000000	137
35.2330000000	148
35.2630000000	193
35.2930000000	231
35.3230000000	240
35.3530000000	267
35.3830000000	252
35.4130000000	227
35.4430000000	195
35.4730000000	157
35.5030000000	140
35.5330000000	109
35.5630000000	92
35.5930000000	106
35.6230000000	95
35.6530000000	86
35.6830000000	106
35.7130000000	99
35.7430000000	107
35.7730000000	94
35.8030000000	112
35.8330000000	94
35.8630000000	100
35.8930000000	100
35.9230000000	107
35.9530000000	85
35.9830000000	83
36.0130000000	92
36.0430000000	92
36.0730000000	92
36.1030000000	68
36.1330000000	85
36.1630000000	85
36.1930000000	108
36.2230000000	93
36.2530000000	82
36.2830000000	95
36.3130000000	91
36.3430000000	112
36.3730000000	105
36.4030000000	112
36.4330000000	123
36.4630000000	138
36.4930000000	170
36.5230000000	211
36.5530000000	238
36.5830000000	330
36.6130000000	419
36.6430000000	417
36.6730000000	424
36.7030000000	387
36.7330000000	303
36.7630000000	229
36.7930000000	166
36.8230000000	128
36.8530000000	125
36.8830000000	110
36.9130000000	104
36.9430000000	98
36.9730000000	92
37.0030000000	89
37.0330000000	110
37.0630000000	94
37.0930000000	93
37.1230000000	99
37.1530000000	100
37.1830000000	92
37.2130000000	82
37.2430000000	80
37.2730000000	79
37.3030000000	84
37.3330000000	81
37.3630000000	99
37.3930000000	102
37.4230000000	93
37.4530000000	85
37.4830000000	79
37.5130000000	88
37.5430000000	86
37.5730000000	78
37.6030000000	80
37.6330000000	85
37.6630000000	98
37.6930000000	80
37.7230000000	74
37.7530000000	95
37.7830000000	88
37.8130000000	86
37.8430000000	87
37.8730000000	75
37.9030000000	103
37.9330000000	98
37.9630000000	81
37.9930000000	99
38.0230000000	103
38.0530000000	80
38.0830000000	79
38.1130000000	89
38.1430000000	93
38.1730000000	94
38.2030000000	105
38.2330000000	101
38.2630000000	76
38.2930000000	76
38.3230000000	81
38.3530000000	81
38.3830000000	85
38.4130000000	86
38.4430000000	81
38.4730000000	85
38.5030000000	91
38.5330000000	77
38.5630000000	85
38.5930000000	90
38.6230000000	90
38.6530000000	87
38.6830000000	78
38.7130000000	72
38.7430000000	85
38.7730000000	92
38.8030000000	89
38.8330000000	96
38.8630000000	95
38.8930000000	94
38.9230000000	98
38.9530000000	93
38.9830000000	83
39.0130000000	85
39.0430000000	89
39.0730000000	84
39.1030000000	95
39.1330000000	77
39.1630000000	98
39.1930000000	96
39.2230000000	110
39.2530000000	88
39.2830000000	101
39.3130000000	77
39.3430000000	91
39.3730000000	84
39.4030000000	101
39.4330000000	104
39.4630000000	101
39.4930000000	140
39.5230000000	144
39.5530000000	215
39.5830000000	268
39.6130000000	359
39.6430000000	490
39.6730000000	731
39.7030000000	1015
39.7330000000	1183
39.7630000000	1257
39.7930000000	1050
39.8230000000	902
39.8530000000	650
39.8830000000	445
39.9130000000	264
39.9430000000	208
39.9730000000	139
40.0030000000	137
40.0330000000	89
40.0630000000	104
40.0930000000	98
40.1230000000	75
40.1530000000	88
40.1830000000	101
40.2130000000	97
40.2430000000	81
40.2730000000	91
40.3030000000	96
40.3330000000	101
40.3630000000	87
40.3930000000	99
40.4230000000	81
40.4530000000	92
40.4830000000	74
40.5130000000	100
40.5430000000	83
40.5730000000	75
40.6030000000	82
40.6330000000	96
40.6630000000	101
40.6930000000	77
40.7230000000	79
40.7530000000	82
40.7830000000	83
40.8130000000	82
40.8430000000	89
40.8730000000	94
40.9030000000	82
40.9330000000	83
40.9630000000	93
40.9930000000	99
41.0230000000	106
41.0530000000	103
41.0830000000	90
41.1130000000	95
41.1430000000	101
41.1730000000	89
41.2030000000	87
41.2330000000	79
41.2630000000	75
41.2930000000	87
41.3230000000	83
41.3530000000	77
41.3830000000	86
41.4130000000	84
41.4430000000	88
41.4730000000	60
41.5030000000	92
41.5330000000	89
41.5630000000	80
41.5930000000	81
41.6230000000	87
41.6530000000	79
41.6830000000	76
41.7130000000	84
41.7430000000	88
41.7730000000	85
41.8030000000	84
41.8330000000	75
41.8630000000	90
41.8930000000	88
41.9230000000	82
41.9530000000	79
41.9830000000	79
42.0130000000	76
42.0430000000	80
42.0730000000	91
42.1030000000	86
42.1330000000	83
42.1630000000	74
42.1930000000	78
42.2230000000	80
42.2530000000	73
42.2830000000	78
42.3130000000	79
42.3430000000	85
42.3730000000	87
42.4030000000	82
42.4330000000	79
42.4630000000	81
42.4930000000	80
42.5230000000	77
42.5530000000	73
42.5830000000	65
42.6130000000	82
42.6430000000	85
42.6730000000	85
42.7030000000	94
42.7330000000	88
42.7630000000	88
42.7930000000	91
42.8230000000	104
42.8530000000	77
42.8830000000	95
42.9130000000	108
42.9430000000	117
42.9730000000	159
43.0030000000	217
43.0330000000	248
43.0630000000	357
43.0930000000	538
43.1230000000	794
43.1530000000	1085
43.1830000000	1223
43.2130000000	1199
43.2430000000	1134
43.2730000000	898
43.3030000000	711
43.3330000000	490
43.3630000000	347
43.3930000000	252
43.4230000000	143
43.4530000000	146
43.4830000000	115
43.5130000000	92
43.5430000000	104
43.5730000000	91
43.6030000000	113
43.6330000000	90
43.6630000000	103
43.6930000000	106
43.7230000000	100
43.7530000000	100
43.7830000000	125
43.8130000000	122
43.8430000000	123
43.8730000000	89
43.9030000000	91
43.9330000000	96
43.9630000000	78
43.9930000000	82
44.0230000000	87
44.0530000000	73
44.0830000000	96
44.1130000000	65
44.1430000000	75
44.1730000000	81
44.2030000000	65
44.2330000000	76
44.2630000000	73
44.2930000000	78
44.3230000000	60
44.3530000000	79
44.3830000000	65
44.4130000000	76
44.4430000000	93
44.4730000000	72
44.5030000000	83
44.5330000000	73
44.5630000000	80
44.5930000000	81
44.6230000000	72
44.6530000000	67
44.6830000000	87
44.7130000000	87
44.7430000000	90
44.7730000000	78
44.8030000000	105
44.8330000000	104
44.8630000000	119
44.8930000000	149
44.9230000000	204
44.9530000000	275
44.9830000000	334
45.0130000000	539
45.0430000000	653
45.0730000000	764
45.1030000000	748
45.1330000000	646
45.1630000000	579
45.1930000000	436
45.2230000000	301
45.2530000000	229
45.2830000000	153
45.3130000000	116
45.3430000000	103
45.3730000000	97
45.4030000000	72
45.4330000000	80
45.4630000000	72
45.4930000000	61
45.5230000000	80
45.5530000000	75
45.5830000000	72
45.6130000000	70
45.6430000000	62
45.6730000000	68
45.7030000000	90
45.7330000000	88
45.7630000000	68
45.7930000000	79
45.8230000000	70
45.8530000000	63
45.8830000000	81
45.9130000000	100
45.9430000000	90
45.9730000000	107
46.0030000000	128
46.0330000000	156
46.0630000000	192
46.0930000000	194
46.1230000000	170
46.1530000000	168
46.1830000000	144
46.2130000000	140
46.2430000000	116
46.2730000000	112
46.3030000000	91
46.3330000000	82
46.3630000000	62
46.3930000000	87
46.4230000000	100
46.4530000000	103
46.4830000000	116
46.5130000000	103
46.5430000000	114
46.5730000000	97
46.6030000000	94
46.6330000000	81
46.6630000000	93
46.6930000000	72
46.7230000000	75
46.7530000000	79
46.7830000000	90
46.8130000000	109
46.8430000000	129
46.8730000000	143
46.9030000000	178
46.9330000000	231
46.9630000000	288
46.9930000000	266
47.0230000000	200
47.0530000000	225
47.0830000000	198
47.1130000000	141
47.1430000000	117
47.1730000000	93
47.2030000000	75
47.2330000000	62
47.2630000000	64
47.2930000000	54
47.3230000000	73
47.3530000000	72
47.3830000000	73
47.4130000000	57
47.4430000000	69
47.4730000000	99
47.5030000000	92
47.5330000000	74
47.5630000000	88
47.5930000000	91
47.6230000000	75
47.6530000000	80
47.6830000000	63
47.7130000000	65
47.7430000000	70
47.7730000000	68
47.8030000000	61
47.8330000000	59
47.8630000000	72
47.8930000000	58
47.9230000000	58
47.9530000000	66
47.9830000000	65
48.0130000000	57
48.0430000000	57
48.0730000000	57
48.1030000000	57
48.1330000000	66
48.1630000000	59
48.1930000000	56
48.2230000000	55
48.2530000000	66
48.2830000000	50
48.3130000000	61
48.3430000000	54
48.3730000000	65
48.4030000000	54
48.4330000000	53
48.4630000000	62
48.4930000000	56
48.5230000000	56
48.5530000000	57
48.5830000000	50
48.6130000000	60
48.6430000000	55
48.6730000000	51
48.7030000000	44
48.7330000000	55
48.7630000000	51
48.7930000000	52
48.8230000000	52
48.8530000000	51
48.8830000000	54
48.9130000000	50
48.9430000000	53
48.9730000000	57
49.0030000000	49
49.0330000000	46
49.0630000000	53
49.0930000000	51
49.1230000000	62
49.1530000000	48
49.1830000000	62
49.2130000000	56
49.2430000000	57
49.2730000000	55
49.3030000000	61
49.3330000000	45
49.3630000000	58
49.3930000000	50
49.4230000000	52
49.4530000000	52
49.4830000000	48
49.5130000000	54
49.5430000000	55
49.5730000000	57
49.6030000000	65
49.6330000000	64
49.6630000000	67
49.6930000000	57
49.7230000000	56
49.7530000000	60
49.7830000000	63
49.8130000000	46
49.8430000000	58
49.8730000000	50
49.9030000000	65
49.9330000000	56
49.9630000000	54
49.9930000000	55
50.0230000000	47
50.0530000000	62
50.0830000000	50
50.1130000000	62
50.1430000000	57
50.1730000000	52
50.2030000000	50
50.2330000000	59
50.2630000000	60
50.2930000000	56
50.3230000000	54
50.3530000000	63
50.3830000000	57
50.4130000000	76
50.4430000000	77
50.4730000000	73
50.5030000000	94
50.5330000000	100
50.5630000000	84
50.5930000000	77
50.6230000000	85
50.6530000000	89
50.6830000000	76
50.7130000000	69
50.7430000000	57
50.7730000000	46
50.8030000000	57
50.8330000000	61
50.8630000000	60
50.8930000000	51
50.9230000000	53
50.9530000000	52
50.9830000000	43
51.0130000000	45
51.0430000000	54
51.0730000000	55
51.1030000000	51
51.1330000000	56
51.1630000000	48
51.1930000000	50
51.2230000000	61
51.2530000000	61
51.2830000000	53
51.3130000000	54
51.3430000000	58
51.3730000000	59
51.4030000000	48
51.4330000000	48
51.4630000000	61
51.4930000000	60
51.5230000000	54
51.5530000000	43
51.5830000000	56
51.6130000000	43
51.6430000000	55
51.6730000000	47
51.7030000000	45
51.7330000000	46
51.7630000000	51
51.7930000000	57
51.8230000000	49
51.8530000000	44
51.8830000000	60
51.9130000000	57
51.9430000000	52
51.9730000000	58
52.0030000000	66
52.0330000000	56
52.0630000000	70
52.0930000000	75
52.1230000000	91
52.1530000000	85
52.1830000000	96
52.2130000000	78
52.2430000000	72
52.2730000000	83
52.3030000000	66
52.3330000000	63
52.3630000000	55
52.3930000000	59
52.4230000000	60
52.4530000000	45
52.4830000000	47
52.5130000000	51
52.5430000000	54
52.5730000000	36
52.6030000000	51
52.6330000000	49
52.6630000000	61
52.6930000000	50
52.7230000000	64
52.7530000000	35
52.7830000000	64
52.8130000000	52
52.8430000000	35
52.8730000000	46
52.9030000000	58
52.9330000000	51
52.9630000000	44
52.9930000000	50
53.0230000000	50
53.0530000000	49
53.0830000000	54
53.1130000000	59
53.1430000000	63
53.1730000000	56
53.2030000000	59
53.2330000000	51
53.2630000000	53
53.2930000000	45
53.3230000000	52
53.3530000000	40
53.3830000000	49
53.4130000000	46
53.4430000000	58
53.4730000000	54
53.5030000000	48
53.5330000000	49
53.5630000000	51
53.5930000000	55
53.6230000000	47
53.6530000000	45
53.6830000000	53
53.7130000000	50
53.7430000000	62
53.7730000000	77
53.8030000000	92
53.8330000000	101
53.8630000000	103
53.8930000000	111
53.9230000000	124
53.9530000000	119
53.9830000000	109
54.0130000000	98
54.0430000000	84
54.0730000000	74
54.1030000000	79
54.1330000000	61
54.1630000000	69
54.1930000000	56
54.2230000000	45
54.2530000000	52
54.2830000000	57
54.3130000000	63
54.3430000000	54
54.3730000000	60
54.4030000000	49
54.4330000000	54
54.4630000000	61
54.4930000000	53
54.5230000000	62
54.5530000000	62
54.5830000000	53
54.6130000000	67
54.6430000000	51
54.6730000000	47
54.7030000000	51
54.7330000000	65
54.7630000000	45
54.7930000000	60
54.8230000000	61
54.8530000000	69
54.8830000000	76
54.9130000000	88
54.9430000000	117
54.9730000000	116
55.0030000000	118
55.0330000000	112
55.0630000000	97
55.0930000000	102
55.1230000000	84
55.1530000000	79
55.1830000000	71
55.2130000000	90
55.2430000000	69
55.2730000000	57
55.3030000000	69
55.3330000000	78
55.3630000000	69
55.3930000000	117
55.4230000000	119
55.4530000000	104
55.4830000000	114
55.5130000000	113
55.5430000000	101
55.5730000000	105
55.6030000000	102
55.6330000000	65
55.6630000000	73
55.6930000000	59
55.7230000000	66
55.7530000000	61
55.7830000000	40
55.8130000000	59
55.8430000000	43
55.8730000000	40
55.9030000000	46
55.9330000000	63
55.9630000000	46
55.9930000000	59
56.0230000000	57
56.0530000000	45
56.0830000000	51
56.1130000000	47
56.1430000000	51
56.1730000000	43
56.2030000000	39
56.2330000000	59
56.2630000000	50
56.2930000000	39
56.3230000000	57
56.3530000000	49
56.3830000000	43
56.4130000000	43
56.4430000000	45
56.4730000000	43
56.5030000000	57
56.5330000000	45
56.5630000000	40
56.5930000000	45
56.6230000000	57
56.6530000000	49
56.6830000000	53
56.7130000000	48
56.7430000000	46
56.7730000000	31
56.8030000000	51
56.8330000000	54
56.8630000000	58
56.8930000000	52
56.9230000000	46
56.9530000000	45
56.9830000000	39
57.0130000000	45
57.0430000000	46
57.0730000000	57
57.1030000000	43
57.1330000000	49
57.1630000000	55
57.1930000000	46
57.2230000000	42
57.2530000000	51
57.2830000000	43
57.3130000000	52
57.3430000000	44
57.3730000000	44
57.4030000000	49
57.4330000000	46
57.4630000000	47
57.4930000000	37
57.5230000000	45
57.5530000000	41
57.5830000000	45
57.6130000000	50
57.6430000000	44
57.6730000000	43
57.7030000000	37
57.7330000000	56
57.7630000000	33
57.7930000000	45
57.8230000000	48
57.8530000000	42
57.8830000000	44
57.9130000000	43
57.9430000000	47
57.9730000000	46
58.0030000000	48
58.0330000000	51
58.0630000000	40
58.0930000000	43
58.1230000000	53
58.1530000000	50
58.1830000000	51
58.2130000000	40
58.2430000000	47
58.2730000000	56
58.3030000000	46
58.3330000000	48
58.3630000000	55
58.3930000000	46
58.4230000000	35
58.4530000000	57
58.4830000000	61
58.5130000000	49
58.5430000000	40
58.5730000000	34
58.6030000000	48
58.6330000000	40
58.6630000000	38
58.6930000000	35
58.7230000000	51
58.7530000000	37
58.7830000000	49
58.8130000000	57
58.8430000000	50
58.8730000000	46
58.9030000000	53
58.9330000000	42
58.9630000000	47
58.9930000000	37
59.0230000000	53
59.0530000000	53
59.0830000000	40
59.1130000000	38
59.1430000000	47
59.1730000000	51
59.2030000000	40
59.2330000000	47
59.2630000000	59
59.2930000000	53
59.3230000000	44
59.3530000000	43
59.3830000000	39
59.4130000000	40
59.4430000000	50
59.4730000000	40
59.5030000000	53
59.5330000000	50
59.5630000000	39
59.5930000000	61
59.6230000000	49
59.6530000000	41
59.6830000000	46
59.7130000000	50
59.7430000000	39
59.7730000000	46
59.8030000000	46
59.8330000000	48
59.8630000000	53
59.8930000000	37
59.9230000000	44
59.9530000000	41
59.9830000000	51
60.0130000000	56
60.0430000000	56
60.0730000000	68
60.1030000000	71
60.1330000000	71
60.1630000000	89
60.1930000000	103
60.2230000000	142
60.2530000000	138
60.2830000000	126
60.3130000000	136
60.3430000000	124
60.3730000000	98
60.4030000000	104
60.4330000000	88
60.4630000000	70
60.4930000000	51
60.5230000000	52
60.5530000000	53
60.5830000000	55
60.6130000000	56
60.6430000000	46
60.6730000000	38
60.7030000000	46
60.7330000000	44
60.7630000000	50
60.7930000000	46
60.8230000000	42
60.8530000000	38
60.8830000000	54
60.9130000000	45
60.9430000000	43
60.9730000000	40
61.0030000000	46
61.0330000000	44
61.0630000000	53
61.0930000000	47
61.1230000000	39
61.1530000000	52
61.1830000000	68
61.2130000000	65
61.2430000000	80
61.2730000000	63
61.3030000000	83
61.3330000000	52
61.3630000000	53
61.3930000000	72
61.4230000000	64
61.4530000000	79
61.4830000000	91
61.5130000000	98
61.5430000000	120
61.5730000000	98
61.6030000000	114
61.6330000000	98
61.6630000000	83
61.6930000000	93
61.7230000000	87
61.7530000000	76
61.7830000000	64
61.8130000000	55
61.8430000000	47
61.8730000000	51
61.9030000000	48
61.9330000000	49
61.9630000000	42
61.9930000000	55
62.0230000000	47
62.0530000000	31
62.0830000000	36
62.1130000000	47
62.1430000000	40
62.1730000000	46
62.2030000000	38
62.2330000000	44
62.2630000000	47
62.2930000000	46
62.3230000000	38
62.3530000000	28
62.3830000000	45
62.4130000000	38
62.4430000000	35
62.4730000000	37
62.5030000000	44
62.5330000000	50
62.5630000000	46
62.5930000000	48
62.6230000000	44
62.6530000000	48
62.6830000000	46
62.7130000000	44
62.7430000000	48
62.7730000000	35
62.8030000000	34
62.8330000000	48
62.8630000000	48
62.8930000000	42
62.9230000000	41
62.9530000000	37
62.9830000000	41
63.0130000000	44
63.0430000000	47
63.0730000000	43
63.1030000000	39
63.1330000000	53
63.1630000000	49
63.1930000000	41
63.2230000000	40
63.2530000000	42
63.2830000000	44
63.3130000000	46
63.3430000000	49
63.3730000000	51
63.4030000000	54
63.4330000000	54
63.4630000000	55
63.4930000000	49
63.5230000000	56
63.5530000000	40
63.5830000000	42
63.6130000000	33
63.6430000000	47
63.6730000000	45
63.7030000000	43
63.7330000000	43
63.7630000000	52
63.7930000000	52
63.8230000000	42
63.8530000000	45
63.8830000000	40
63.9130000000	49
63.9430000000	38
63.9730000000	40
64.0030000000	44
64.0330000000	45
64.0630000000	39
64.0930000000	35
64.1230000000	43
64.1530000000	48
64.1830000000	38
64.2130000000	53
64.2430000000	41
64.2730000000	38
64.3030000000	37
64.3330000000	28
64.3630000000	35
64.3930000000	42
64.4230000000	51
64.4530000000	56
64.4830000000	45
64.5130000000	45
64.5430000000	34
64.5730000000	50
64.6030000000	35
64.6330000000	46
64.6630000000	55
64.6930000000	61
64.7230000000	43
64.7530000000	42
64.7830000000	60
64.8130000000	40
64.8430000000	51
64.8730000000	46
64.9030000000	59
64.9330000000	47
64.9630000000	40
64.9930000000	27
65.0230000000	34
65.0530000000	46
65.0830000000	45
65.1130000000	44
65.1430000000	39
65.1730000000	52
65.2030000000	47
65.2330000000	39
65.2630000000	39
65.2930000000	38
65.3230000000	33
65.3530000000	39
65.3830000000	42
65.4130000000	41
65.4430000000	45
65.4730000000	44
65.5030000000	33
65.5330000000	31
65.5630000000	44
65.5930000000	44
65.6230000000	52
65.6530000000	31
65.6830000000	57
65.7130000000	43
65.7430000000	44
65.7730000000	54
65.8030000000	44
65.8330000000	45
65.8630000000	34
65.8930000000	54
65.9230000000	41
65.9530000000	37
65.9830000000	51
66.0130000000	46
66.0430000000	65
66.0730000000	62
66.1030000000	64
66.1330000000	99
66.1630000000	124
66.1930000000	126
66.2230000000	170
66.2530000000	189
66.2830000000	181
66.3130000000	140
66.3430000000	123
66.3730000000	107
66.4030000000	109
66.4330000000	106
66.4630000000	96
66.4930000000	75
66.5230000000	62
66.5530000000	53
66.5830000000	53
66.6130000000	58
66.6430000000	54
66.6730000000	50
66.7030000000	45
66.7330000000	50
66.7630000000	51
66.7930000000	57
66.8230000000	43
66.8530000000	47
66.8830000000	42
66.9130000000	43
66.9430000000	36
66.9730000000	47
67.0030000000	33
67.0330000000	40
67.0630000000	45
67.0930000000	42
67.1230000000	57
67.1530000000	53
67.1830000000	41
67.2130000000	37
67.2430000000	31
67.2730000000	36
67.3030000000	39
67.3330000000	41
67.3630000000	45
67.3930000000	34
67.4230000000	35
67.4530000000	40
67.4830000000	40
67.5130000000	38
67.5430000000	47
67.5730000000	25
67.6030000000	40
67.6330000000	46
67.6630000000	36
67.6930000000	35
67.7230000000	40
67.7530000000	47
67.7830000000	39
67.8130000000	36
67.8430000000	46
67.8730000000	44
67.9030000000	34
67.9330000000	38
67.9630000000	42
67.9930000000	38
68.0230000000	41
68.0530000000	37
68.0830000000	39
68.1130000000	46
68.1430000000	44
68.1730000000	43
68.2030000000	42
68.2330000000	43
68.2630000000	47
68.2930000000	48
68.3230000000	47
68.3530000000	37
68.3830000000	51
68.4130000000	49
68.4430000000	41
68.4730000000	37
68.5030000000	41
68.5330000000	38
68.5630000000	44
68.5930000000	38
68.6230000000	49
68.6530000000	38
68.6830000000	33
68.7130000000	52
68.7430000000	39
68.7730000000	44
68.8030000000	36
68.8330000000	38
68.8630000000	43
68.8930000000	45
68.9230000000	35
68.9530000000	39
68.9830000000	42
69.0130000000	42
69.0430000000	51
69.0730000000	44
69.1030000000	39
69.1330000000	41
69.1630000000	41
69.1930000000	46
69.2230000000	56
69.2530000000	34
69.2830000000	42
69.3130000000	41
69.3430000000	45
69.3730000000	46
69.4030000000	29
69.4330000000	39
69.4630000000	36
69.4930000000	30
69.5230000000	34
69.5530000000	35
69.5830000000	41
69.6130000000	41
69.6430000000	47
69.6730000000	50
69.7030000000	42
69.7330000000	40
69.7630000000	47
69.7930000000	40
69.8230000000	49
69.8530000000	45
69.8830000000	34
69.9130000000	44
69.9430000000	41
69.9730000000	41
70.0030000000	45
70.0330000000	27
70.0630000000	39
70.0930000000	47
70.1230000000	42
70.1530000000	32
70.1830000000	42
70.2130000000	49
70.2430000000	41
70.2730000000	38
70.3030000000	27
70.3330000000	34
70.3630000000	51
70.3930000000	47
70.4230000000	41
70.4530000000	39
70.4830000000	43
70.5130000000	36
70.5430000000	28
70.5730000000	49
70.6030000000	46
70.6330000000	52
70.6630000000	25
70.6930000000	34
70.7230000000	44
70.7530000000	39
70.7830000000	45
70.8130000000	50
70.8430000000	36
70.8730000000	49
70.9030000000	41
70.9330000000	34
70.9630000000	33
70.9930000000	38
71.0230000000	51
71.0530000000	40
71.0830000000	37
71.1130000000	39
71.1430000000	42
71.1730000000	43
71.2030000000	44
71.2330000000	37
71.2630000000	40
71.2930000000	32
71.3230000000	42
71.3530000000	36
71.3830000000	43
71.4130000000	49
71.4430000000	37
71.4730000000	43
71.5030000000	46
71.5330000000	42
71.5630000000	43
71.5930000000	44
71.6230000000	28
71.6530000000	42
71.6830000000	47
71.7130000000	60
71.7430000000	44
71.7730000000	42
71.8030000000	48
71.8330000000	33
71.8630000000	42
71.8930000000	39
71.9230000000	49
71.9530000000	40
71.9830000000	53
72.0130000000	51
72.0430000000	50
72.0730000000	45
72.1030000000	54
72.1330000000	47
72.1630000000	56
72.1930000000	62
72.2230000000	65
72.2530000000	82
72.2830000000	98
72.3130000000	95
72.3430000000	98
72.3730000000	100
72.4030000000	87
72.4330000000	95
72.4630000000	80
72.4930000000	90
72.5230000000	72
72.5530000000	80
72.5830000000	67
72.6130000000	64
72.6430000000	63
72.6730000000	60
72.7030000000	64
72.7330000000	66
72.7630000000	99
72.7930000000	92
72.8230000000	128
72.8530000000	134
72.8830000000	180
72.9130000000	140
72.9430000000	120
72.9730000000	113
73.0030000000	103
73.0330000000	104
73.0630000000	104
73.0930000000	77
73.1230000000	84
73.1530000000	73
73.1830000000	66
73.2130000000	60
73.2430000000	57
73.2730000000	62
73.3030000000	45
73.3330000000	47
73.3630000000	49
73.3930000000	39
73.4230000000	53
73.4530000000	61
73.4830000000	49
73.5130000000	32
73.5430000000	39
73.5730000000	49
73.6030000000	45
73.6330000000	43
73.6630000000	47
73.6930000000	45
73.7230000000	46
73.7530000000	53
73.7830000000	40
73.8130000000	39
73.8430000000	49
73.8730000000	51
73.9030000000	42
73.9330000000	40
73.9630000000	38
73.9930000000	37
74.0230000000	58
74.0530000000	53
74.0830000000	39
74.1130000000	46
74.1430000000	44
74.1730000000	36
74.2030000000	47
74.2330000000	39
74.2630000000	46
74.2930000000	44
74.3230000000	37
74.3530000000	57
74.3830000000	41
74.4130000000	37
74.4430000000	56
74.4730000000	43
74.5030000000	40
74.5330000000	24
74.5630000000	41
74.5930000000	41
74.6230000000	35
74.6530000000	43
74.6830000000	54
74.7130000000	51
74.7430000000	50
74.7730000000	61
74.8030000000	50
74.8330000000	50
74.8630000000	51
74.8930000000	46
74.9230000000	43
74.9530000000	41
74.9830000000	62
75.0130000000	40
75.0430000000	48
75.0730000000	52
75.1030000000	55
75.1330000000	38
75.1630000000	60
75.1930000000	40
75.2230000000	46
75.2530000000	41
75.2830000000	43
75.3130000000	50
75.3430000000	50
75.3730000000	43
75.4030000000	46
75.4330000000	45
75.4630000000	34
75.4930000000	52
75.5230000000	46
75.5530000000	37
75.5830000000	35
75.6130000000	40
75.6430000000	36
75.6730000000	31
75.7030000000	42
75.7330000000	52
75.7630000000	35
75.7930000000	38
75.8230000000	37
75.8530000000	36
75.8830000000	38
75.9130000000	39
75.9430000000	38
75.9730000000	37
76.0030000000	36
76.0330000000	36
76.0630000000	42
76.0930000000	39
76.1230000000	36
76.1530000000	49
76.1830000000	45
76.2130000000	39
76.2430000000	49
76.2730000000	48
76.3030000000	48
76.3330000000	51
76.3630000000	46
76.3930000000	37
76.4230000000	38
76.4530000000	36
76.4830000000	29
76.5130000000	51
76.5430000000	41
76.5730000000	39
76.6030000000	33
76.6330000000	41
76.6630000000	45
76.6930000000	35
76.7230000000	32
76.7530000000	34
76.7830000000	52
76.8130000000	37
76.8430000000	40
76.8730000000	38
76.9030000000	42
76.9330000000	38
76.9630000000	43
76.9930000000	46
77.0230000000	35
77.0530000000	34
77.0830000000	40
77.1130000000	39
77.1430000000	34
77.1730000000	39
77.2030000000	33
77.2330000000	34
77.2630000000	29
77.2930000000	45
77.3230000000	53
77.3530000000	36
77.3830000000	40
77.4130000000	37
77.4430000000	46
77.4730000000	59
77.5030000000	66
77.5330000000	70
77.5630000000	90
77.5930000000	72
77.6230000000	53
77.6530000000	68
77.6830000000	56
77.7130000000	49
77.7430000000	61
77.7730000000	50
77.8030000000	53
77.8330000000	56
77.8630000000	56
77.8930000000	63
77.9230000000	54
77.9530000000	52
77.9830000000	52
78.0130000000	44
78.0430000000	39
78.0730000000	43
78.1030000000	39
78.1330000000	47
78.1630000000	38
78.1930000000	41
78.2230000000	39
78.2530000000	39
78.2830000000	42
78.3130000000	41
78.3430000000	39
78.3730000000	43
78.4030000000	49
78.4330000000	45
78.4630000000	53
78.4930000000	47
78.5230000000	44
78.5530000000	45
78.5830000000	37
78.6130000000	28
78.6430000000	48
78.6730000000	50
78.7030000000	49
78.7330000000	53
78.7630000000	58
78.7930000000	55
78.8230000000	61
78.8530000000	52
78.8830000000	54
78.9130000000	53
78.9430000000	36
78.9730000000	42
79.0030000000	45
79.0330000000	41
79.0630000000	42
79.0930000000	40
79.1230000000	42
79.1530000000	45
79.1830000000	45
79.2130000000	41
79.2430000000	33
79.2730000000	42
79.3030000000	47
79.3330000000	44
79.3630000000	29
79.3930000000	39
79.4230000000	41
79.4530000000	38
79.4830000000	39
79.5130000000	41
79.5430000000	38
79.5730000000	36
79.6030000000	38
79.6330000000	51
79.6630000000	36
79.6930000000	36
79.7230000000	41
79.7530000000	46
79.7830000000	41
79.8130000000	43
79.8430000000	46
79.8730000000	52
79.9030000000	49
79.9330000000	36
79.9630000000	38
79.9930000000	36
80.0230000000	47
80.0530000000	30
80.0830000000	46
80.1130000000	37
80.1430000000	32
80.1730000000	45
80.2030000000	41
80.2330000000	35
80.2630000000	36
80.2930000000	34
80.3230000000	34
80.3530000000	41
80.3830000000	41
80.4130000000	38
80.4430000000	47
80.4730000000	38
80.5030000000	48
80.5330000000	63
80.5630000000	57
80.5930000000	56
80.6230000000	53
80.6530000000	61
80.6830000000	49
80.7130000000	51
80.7430000000	49
80.7730000000	52
80.8030000000	45
80.8330000000	50
80.8630000000	40
80.8930000000	41
80.9230000000	36
80.9530000000	39
80.9830000000	43
81.0130000000	33
81.0430000000	31
81.0730000000	46
81.1030000000	35
81.1330000000	38
81.1630000000	43
81.1930000000	50
81.2230000000	42
81.2530000000	51
81.2830000000	33
81.3130000000	39
81.3430000000	38
81.3730000000	48
81.4030000000	37
81.4330000000	40
81.4630000000	48
81.4930000000	31
81.5230000000	53
81.5530000000	34
81.5830000000	39
81.6130000000	47
81.6430000000	28
81.6730000000	38
81.7030000000	29
81.7330000000	32
81.7630000000	42
81.7930000000	47
81.8230000000	43
81.8530000000	36
81.8830000000	32
81.9130000000	32
81.9430000000	34
81.9730000000	32
82.0030000000	46
82.0330000000	44
82.0630000000	33
82.0930000000	37
82.1230000000	37
82.1530000000	27
82.1830000000	46
82.2130000000	25
82.2430000000	39
82.2730000000	42
82.3030000000	39
82.3330000000	39
82.3630000000	38
82.3930000000	37
82.4230000000	32
82.4530000000	33
82.4830000000	36
82.5130000000	42
82.5430000000	38
82.5730000000	38
82.6030000000	38
82.6330000000	29
82.6630000000	36
82.6930000000	32
82.7230000000	36
82.7530000000	39
82.7830000000	46
82.8130000000	43
82.8430000000	46
82.8730000000	49
82.9030000000	33
82.9330000000	63
82.9630000000	45
82.9930000000	40
83.0230000000	44
83.0530000000	46
83.0830000000	33
83.1130000000	33
83.1430000000	54
83.1730000000	46
83.2030000000	52
83.2330000000	48
83.2630000000	54
83.2930000000	55
83.3230000000	56
83.3530000000	58
83.3830000000	58
83.4130000000	39
83.4430000000	53
83.4730000000	55
83.5030000000	51
83.5330000000	47
83.5630000000	44
83.5930000000	42
83.6230000000	39
83.6530000000	45
83.6830000000	39
83.7130000000	45
83.7430000000	39
83.7730000000	32
83.8030000000	37
83.8330000000	32
83.8630000000	45
83.8930000000	46
83.9230000000	41
83.9530000000	38
83.9830000000	44
84.0130000000	43
84.0430000000	30
84.0730000000	44
84.1030000000	30
84.1330000000	33
84.1630000000	43
84.1930000000	44
84.2230000000	46
84.2530000000	36
84.2830000000	41
84.3130000000	35
84.3430000000	34
84.3730000000	33
84.4030000000	33
84.4330000000	43
84.4630000000	31
84.4930000000	41
84.5230000000	32
84.5530000000	32
84.5830000000	41
84.6130000000	27
84.6430000000	46
84.6730000000	46
84.7030000000	37
84.7330000000	33
84.7630000000	37
84.7930000000	31
84.8230000000	31
84.8530000000	38
84.8830000000	22
84.9130000000	43
84.9430000000	43
84.9730000000	39
85.0030000000	40
85.0330000000	47
85.0630000000	39
85.0930000000	34
85.1230000000	37
85.1530000000	43
85.1830000000	35
85.2130000000	40
85.2430000000	36
85.2730000000	37
85.3030000000	26
85.3330000000	45
85.3630000000	30
85.3930000000	38
85.4230000000	38
85.4530000000	37
85.4830000000	48
85.5130000000	38
85.5430000000	41
85.5730000000	44
85.6030000000	32
85.6330000000	41
85.6630000000	45
85.6930000000	55
85.7230000000	44
85.7530000000	37
85.7830000000	40
85.8130000000	51
85.8430000000	44
85.8730000000	33
85.9030000000	47
85.9330000000	23
85.9630000000	41
85.9930000000	55
86.0230000000	33
86.0530000000	38
86.0830000000	40
86.1130000000	38
86.1430000000	41
86.1730000000	41
86.2030000000	40
86.2330000000	41
86.2630000000	42
86.2930000000	34
86.3230000000	39
86.3530000000	45
86.3830000000	35
86.4130000000	38
86.4430000000	36
86.4730000000	46
86.5030000000	41
86.5330000000	42
86.5630000000	30
86.5930000000	34
86.6230000000	35
86.6530000000	37
86.6830000000	47
86.7130000000	47
86.7430000000	45
86.7730000000	42
86.8030000000	43
86.8330000000	49
86.8630000000	40
86.8930000000	38
86.9230000000	40
86.9530000000	34
86.9830000000	35
87.0130000000	47
87.0430000000	56
87.0730000000	43
87.1030000000	39
87.1330000000	39
87.1630000000	30
87.1930000000	37
87.2230000000	38
87.2530000000	37
87.2830000000	48
87.3130000000	42
87.3430000000	32
87.3730000000	43
87.4030000000	37
87.4330000000	47
87.4630000000	34
87.4930000000	31
87.5230000000	34
87.5530000000	41
87.5830000000	46
87.6130000000	40
87.6430000000	33
87.6730000000	39
87.7030000000	39
87.7330000000	46
87.7630000000	43
87.7930000000	31
87.8230000000	38
87.8530000000	33
87.8830000000	42
87.9130000000	47
87.9430000000	34
87.9730000000	44
88.0030000000	34
88.0330000000	30
88.0630000000	35
88.0930000000	39
88.1230000000	42
88.1530000000	58
88.1830000000	41
88.2130000000	52
88.2430000000	47
88.2730000000	41
88.3030000000	43
88.3330000000	52
88.3630000000	41
88.3930000000	48
88.4230000000	47
88.4530000000	39
88.4830000000	57
88.5130000000	42
88.5430000000	43
88.5730000000	51
88.6030000000	54
88.6330000000	59
88.6630000000	50
88.6930000000	39
88.7230000000	37
88.7530000000	30
88.7830000000	39
88.8130000000	44
88.8430000000	49
88.8730000000	40
88.9030000000	49
88.9330000000	44
88.9630000000	46
88.9930000000	35
89.0230000000	45
89.0530000000	38
89.0830000000	39
89.1130000000	37
89.1430000000	28
89.1730000000	35
89.2030000000	37
89.2330000000	38
89.2630000000	43
89.2930000000	31
89.3230000000	46
89.3530000000	41
89.3830000000	45
89.4130000000	49
89.4430000000	40
89.4730000000	43
89.5030000000	55
89.5330000000	47
89.5630000000	54
89.5930000000	55
89.6230000000	51
89.6530000000	49
89.6830000000	56
89.7130000000	47
89.7430000000	39
89.7730000000	46
89.8030000000	54
89.8330000000	53
89.8630000000	46
89.8930000000	47
89.9230000000	37
89.9530000000	37
89.9830000000	31
90.0130000000	40
90.0430000000	45
90.0730000000	49
90.1030000000	32
90.1330000000	32
90.1630000000	37
90.1930000000	39
90.2230000000	42
90.2530000000	36
90.2830000000	30
90.3130000000	53
90.3430000000	41
90.3730000000	33
90.4030000000	33
90.4330000000	40
90.4630000000	39
90.4930000000	45
90.5230000000	41
90.5530000000	45
90.5830000000	46
90.6130000000	34
90.6430000000	26
90.6730000000	39
90.7030000000	46
90.7330000000	35
90.7630000000	42
90.7930000000	35
90.8230000000	38
90.8530000000	39
90.8830000000	33
90.9130000000	39
90.9430000000	36
90.9730000000	45
91.0030000000	40
91.0330000000	31
91.0630000000	27
91.0930000000	45
91.1230000000	55
91.1530000000	34
91.1830000000	27
91.2130000000	46
91.2430000000	41
91.2730000000	34
91.3030000000	37
91.3330000000	40
91.3630000000	30
91.3930000000	36
91.4230000000	41
91.4530000000	30
91.4830000000	29
91.5130000000	40
91.5430000000	43
91.5730000000	33
91.6030000000	33
91.6330000000	39
91.6630000000	39
91.6930000000	37
91.7230000000	30
91.7530000000	38
91.7830000000	26
91.8130000000	42
91.8430000000	46
91.8730000000	31
91.9030000000	29
91.9330000000	38
91.9630000000	36
91.9930000000	40
92.0230000000	35
92.0530000000	38
92.0830000000	31
92.1130000000	31
92.1430000000	30
92.1730000000	41
92.2030000000	39
92.2330000000	46
92.2630000000	36
92.2930000000	39
92.3230000000	33
92.3530000000	31
92.3830000000	34
92.4130000000	40
92.4430000000	39
92.4730000000	41
92.5030000000	39
92.5330000000	50
92.5630000000	33
92.5930000000	41
92.6230000000	36
92.6530000000	34
92.6830000000	39
92.7130000000	40
92.7430000000	20
92.7730000000	35
92.8030000000	41
92.8330000000	50
92.8630000000	35
92.8930000000	32
92.9230000000	36
92.9530000000	35
92.9830000000	32
93.0130000000	39
93.0430000000	35
93.0730000000	40
93.1030000000	38
93.1330000000	39
93.1630000000	39
93.1930000000	39
93.2230000000	42
93.2530000000	34
93.2830000000	28
93.3130000000	42
93.3430000000	51
93.3730000000	33
93.4030000000	46
93.4330000000	34
93.4630000000	45
93.4930000000	39
93.5230000000	39
93.5530000000	43
93.5830000000	38
93.6130000000	43
93.6430000000	48
93.6730000000	41
93.7030000000	43
93.7330000000	36
93.7630000000	47
93.7930000000	48
93.8230000000	60
93.8530000000	36
93.8830000000	51
93.9130000000	40
93.9430000000	45
93.9730000000	41
94.0030000000	46
94.0330000000	42
94.0630000000	41
94.0930000000	36
94.1230000000	48
94.1530000000	39
94.1830000000	39
94.2130000000	40
94.2430000000	43
94.2730000000	44
94.3030000000	36
94.3330000000	48
94.3630000000	37
94.3930000000	37
94.4230000000	36
94.4530000000	32
94.4830000000	31
94.5130000000	37
94.5430000000	33
94.5730000000	29
94.6030000000	43
94.6330000000	43
94.6630000000	39
94.6930000000	42
94.7230000000	42
94.7530000000	40
94.7830000000	29
94.8130000000	31
94.8430000000	34
94.8730000000	28
94.9030000000	39
94.9330000000	38
94.9630000000	45
94.9930000000	43
95.0230000000	39
95.0530000000	35
95.0830000000	49
95.1130000000	37
95.1430000000	32
95.1730000000	36
95.2030000000	37
95.2330000000	36
95.2630000000	40
95.2930000000	37
95.3230000000	33
95.3530000000	34
95.3830000000	37
95.4130000000	29
95.4430000000	38
95.4730000000	42
95.5030000000	31
95.5330000000	46
95.5630000000	50
95.5930000000	33
95.6230000000	44
95.6530000000	49
95.6830000000	38
95.7130000000	28
95.7430000000	32
95.7730000000	43
95.8030000000	44
95.8330000000	34
95.8630000000	36
95.8930000000	35
95.9230000000	40
95.9530000000	43
95.9830000000	37
96.0130000000	35
96.0430000000	39
96.0730000000	36
96.1030000000	36
96.1330000000	48
96.1630000000	44
96.1930000000	44
96.2230000000	37
96.2530000000	35
96.2830000000	32
96.3130000000	36
96.3430000000	50
96.3730000000	39
96.4030000000	44
96.4330000000	43
96.4630000000	47
96.4930000000	30
96.5230000000	43
96.5530000000	31
96.5830000000	42
96.6130000000	38
96.6430000000	38
96.6730000000	40
96.7030000000	35
96.7330000000	44
96.7630000000	45
96.7930000000	45
96.8230000000	45
96.8530000000	35
96.8830000000	41
96.9130000000	32
96.9430000000	34
96.9730000000	33
97.0030000000	48
97.0330000000	26
97.0630000000	36
97.0930000000	38
97.1230000000	31
97.1530000000	36
97.1830000000	39
97.2130000000	32
97.2430000000	31
97.2730000000	33
97.3030000000	37
97.3330000000	41
97.3630000000	34
97.3930000000	36
97.4230000000	36
97.4530000000	35
97.4830000000	44
97.5130000000	30
97.5430000000	38
97.5730000000	42
97.6030000000	44
97.6330000000	38
97.6630000000	42
97.6930000000	31
97.7230000000	39
97.7530000000	31
97.7830000000	41
97.8130000000	30
97.8430000000	29
97.8730000000	35
97.9030000000	47
97.9330000000	45
97.9630000000	41
97.9930000000	36
98.0230000000	40
98.0530000000	37
98.0830000000	32
98.1130000000	39
98.1430000000	32
98.1730000000	41
98.2030000000	41
98.2330000000	37
98.2630000000	42
98.2930000000	39
98.3230000000	39
98.3530000000	37
98.3830000000	44
98.4130000000	45
98.4430000000	49
98.4730000000	43
98.5030000000	33
98.5330000000	35
98.5630000000	38
98.5930000000	35
98.6230000000	34
98.6530000000	37
98.6830000000	39
98.7130000000	41
98.7430000000	34
98.7730000000	32
98.8030000000	35
98.8330000000	28
98.8630000000	32
98.8930000000	53
98.9230000000	31
98.9530000000	42
98.9830000000	42
99.0130000000	43
99.0430000000	35
99.0730000000	40
99.1030000000	34
99.1330000000	33
99.1630000000	38
99.1930000000	41
99.2230000000	43
99.2530000000	38
99.2830000000	38
99.3130000000	40
99.3430000000	32
99.3730000000	40
99.4030000000	32
99.4330000000	37
99.4630000000	38
99.4930000000	27
99.5230000000	38
99.5530000000	37
99.5830000000	33
99.6130000000	37
99.6430000000	23
99.6730000000	34
99.7030000000	30
99.7330000000	35
99.7630000000	30
99.7930000000	35
99.8230000000	39
99.8530000000	35
99.8830000000	28
99.9130000000	41
99.9430000000	30
99.9730000000	38
100.0030000000	44
100.0330000000	34
100.0630000000	36
100.0930000000	35
100.1230000000	36
100.1530000000	38
100.1830000000	33
100.2130000000	30
100.2430000000	35
100.2730000000	46
100.3030000000	34
100.3330000000	40
100.3630000000	43
100.3930000000	44
100.4230000000	36
100.4530000000	34
100.4830000000	34
100.5130000000	36
100.5430000000	41
100.5730000000	33
100.6030000000	40
100.6330000000	46
100.6630000000	45
100.6930000000	30
100.7230000000	37
100.7530000000	47
100.7830000000	37
100.8130000000	40
100.8430000000	35
100.8730000000	32
100.9030000000	40
100.9330000000	30
100.9630000000	41
100.9930000000	44
101.0230000000	40
101.0530000000	37
101.0830000000	32
101.1130000000	46
101.1430000000	42
101.1730000000	40
101.2030000000	43
101.2330000000	37
101.2630000000	33
101.2930000000	35
101.3230000000	27
101.3530000000	32
101.3830000000	38
101.4130000000	48
101.4430000000	37
101.4730000000	33
101.5030000000	38
101.5330000000	35
101.5630000000	38
101.5930000000	42
101.6230000000	32
101.6530000000	30
101.6830000000	41
101.7130000000	39
101.7430000000	27
101.7730000000	34
101.8030000000	38
101.8330000000	40
101.8630000000	36
101.8930000000	37
101.9230000000	37
101.9530000000	24
101.9830000000	29
102.0130000000	41
102.0430000000	28
102.0730000000	46
102.1030000000	37
102.1330000000	34
102.1630000000	33
102.1930000000	21
102.2230000000	43
102.2530000000	39
102.2830000000	37
102.3130000000	40
102.3430000000	38
102.3730000000	43
102.4030000000	37
102.4330000000	47
102.4630000000	21
102.4930000000	42
102.5230000000	29
102.5530000000	39
102.5830000000	29
102.6130000000	31
102.6430000000	45
102.6730000000	38
102.7030000000	26
102.7330000000	33
102.7630000000	33
102.7930000000	31
102.8230000000	25
102.8530000000	34
102.8830000000	35
102.9130000000	47
102.9430000000	43
102.9730000000	32
103.0030000000	35
103.0330000000	37
103.0630000000	36
103.0930000000	40
103.1230000000	33
103.1530000000	26
103.1830000000	31
103.2130000000	37
103.2430000000	39
103.2730000000	39
103.3030000000	38
103.3330000000	32
103.3630000000	33
103.3930000000	28
103.4230000000	35
103.4530000000	34
103.4830000000	33
103.5130000000	31
103.5430000000	37
103.5730000000	35
103.6030000000	31
103.6330000000	33
103.6630000000	37
103.6930000000	35
103.7230000000	35
103.7530000000	44
103.7830000000	22
103.8130000000	33
103.8430000000	30
103.8730000000	33
103.9030000000	48
103.9330000000	34
103.9630000000	43
103.9930000000	44
104.0230000000	39
104.0530000000	32
104.0830000000	28
104.1130000000	26
104.1430000000	43
104.1730000000	31
104.2030000000	33
104.2330000000	46
104.2630000000	42
104.2930000000	49
104.3230000000	49
104.3530000000	45
104.3830000000	44
104.4130000000	24
104.4430000000	36
104.4730000000	33
104.5030000000	39
104.5330000000	48
104.5630000000	42
104.5930000000	40
104.6230000000	35
104.6530000000	40
104.6830000000	42
104.7130000000	42
104.7430000000	49
104.7730000000	30
104.8030000000	38
104.8330000000	38
104.8630000000	47
104.8930000000	38
104.9230000000	39
104.9530000000	42
104.9830000000	40
105.0130000000	39
105.0430000000	49
105.0730000000	51
105.1030000000	35
105.1330000000	33
105.1630000000	43
105.1930000000	38
105.2230000000	28
105.2530000000	46
105.2830000000	34
105.3130000000	34
105.3430000000	37
105.3730000000	34
105.4030000000	36
105.4330000000	30
105.4630000000	37
105.4930000000	34
105.5230000000	27
105.5530000000	39
105.5830000000	49
105.6130000000	43
105.6430000000	38
105.6730000000	37
105.7030000000	39
105.7330000000	37
105.7630000000	35
105.7930000000	43
105.8230000000	40
105.8530000000	36
105.8830000000	30
105.9130000000	30
105.9430000000	35
105.9730000000	29
106.0030000000	39
106.0330000000	36
106.0630000000	42
106.0930000000	35
106.1230000000	45
106.1530000000	33
106.1830000000	42
106.2130000000	28
106.2430000000	29
106.2730000000	35
106.3030000000	37
106.3330000000	35
106.3630000000	43
106.3930000000	28
106.4230000000	27
106.4530000000	40
106.4830000000	36
106.5130000000	45
106.5430000000	42
106.5730000000	48
106.6030000000	45
106.6330000000	32
106.6630000000	38
106.6930000000	37
106.7230000000	42
106.7530000000	49
106.7830000000	56
106.8130000000	42
106.8430000000	46
106.8730000000	34
106.9030000000	38
106.9330000000	39
106.9630000000	53
106.9930000000	43
107.0230000000	34
107.0530000000	40
107.0830000000	32
107.1130000000	38
107.1430000000	37
107.1730000000	34
107.2030000000	38
107.2330000000	38
107.2630000000	40
107.2930000000	32
107.3230000000	36
107.3530000000	40
107.3830000000	34
107.4130000000	41
107.4430000000	40
107.4730000000	41
107.5030000000	45
107.5330000000	37
107.5630000000	38
107.5930000000	41
107.6230000000	29
107.6530000000	36
107.6830000000	42
107.7130000000	38
107.7430000000	39
107.7730000000	42
107.8030000000	44
107.8330000000	40
107.8630000000	42
107.8930000000	44
107.9230000000	35
107.9530000000	31
107.9830000000	40
108.0130000000	38
108.0430000000	36
108.0730000000	39
108.1030000000	44
108.1330000000	35
108.1630000000	36
108.1930000000	47
108.2230000000	50
108.2530000000	49
108.2830000000	38
108.3130000000	33
108.3430000000	40
108.3730000000	39
108.4030000000	36
108.4330000000	23
108.4630000000	38
108.4930000000	28
108.5230000000	37
108.5530000000	34
108.5830000000	39
108.6130000000	37
108.6430000000	32
108.6730000000	41
108.7030000000	28
108.7330000000	23
108.7630000000	37
108.7930000000	38
108.8230000000	32
108.8530000000	37
108.8830000000	40
108.9130000000	40
108.9430000000	29
108.9730000000	43
109.0030000000	41
109.0330000000	36
109.0630000000	41
109.0930000000	33
109.1230000000	46
109.1530000000	44
109.1830000000	35
109.2130000000	38
109.2430000000	30
109.2730000000	37
109.3030000000	49
109.3330000000	35
109.3630000000	35
109.3930000000	38
109.4230000000	39
109.4530000000	42
109.4830000000	46
109.5130000000	39
109.5430000000	34
109.5730000000	39
109.6030000000	32
109.6330000000	32
109.6630000000	42
109.6930000000	34
109.7230000000	37
109.7530000000	30
109.7830000000	34
109.8130000000	40
109.8430000000	52
109.8730000000	37
109.9030000000	48
109.9330000000	54
109.9630000000	38
109.9930000000	43
110.0230000000	38
110.0530000000	34
110.0830000000	39
110.1130000000	51
110.1430000000	44
110.1730000000	34
110.2030000000	22
110.2330000000	42
110.2630000000	33
110.2930000000	40
110.3230000000	42
110.3530000000	36
110.3830000000	31
110.4130000000	37
110.4430000000	52
110.4730000000	40
110.5030000000	48
110.5330000000	39
110.5630000000	30
110.5930000000	31
110.6230000000	41
110.6530000000	42
110.6830000000	42
110.7130000000	47
110.7430000000	42
110.7730000000	37
110.8030000000	48
110.8330000000	43
110.8630000000	27
110.8930000000	27
110.9230000000	29
110.9530000000	39
110.9830000000	41
111.0130000000	43
111.0430000000	40
111.0730000000	46
111.1030000000	45
111.1330000000	38
111.1630000000	39
111.1930000000	36
111.2230000000	36
111.2530000000	36
111.2830000000	35
111.3130000000	29
111.3430000000	31
111.3730000000	34
111.4030000000	36
111.4330000000	47
111.4630000000	31
111.4930000000	48
111.5230000000	45
111.5530000000	44
111.5830000000	40
111.6130000000	43
111.6430000000	52
111.6730000000	32
111.7030000000	34
111.7330000000	47
111.7630000000	35
111.7930000000	37
111.8230000000	34
111.8530000000	56
111.8830000000	39
111.9130000000	49
111.9430000000	45
111.9730000000	33
112.0030000000	41
112.0330000000	52
112.0630000000	44
112.0930000000	32
112.1230000000	41
112.1530000000	46
112.1830000000	39
112.2130000000	39
112.2430000000	42
112.2730000000	30
112.3030000000	42
112.3330000000	45
112.3630000000	41
112.3930000000	48
112.4230000000	35
112.4530000000	41
112.4830000000	31
112.5130000000	38
112.5430000000	33
112.5730000000	40
112.6030000000	53
112.6330000000	50
112.6630000000	43
112.6930000000	42
112.7230000000	47
112.7530000000	43
112.7830000000	38
112.8130000000	40
112.8430000000	32
112.8730000000	46
112.9030000000	41
112.9330000000	48
112.9630000000	65
112.9930000000	63
113.0230000000	69
113.0530000000	77
113.0830000000	71
113.1130000000	81
113.1430000000	59
113.1730000000	63
113.2030000000	54
113.2330000000	44
113.2630000000	41
113.2930000000	41
113.3230000000	38
113.3530000000	47
113.3830000000	61
113.4130000000	60
113.4430000000	52
113.4730000000	50
113.5030000000	46
113.5330000000	55
113.5630000000	39
113.5930000000	40
113.6230000000	39
113.6530000000	38
113.6830000000	42
113.7130000000	45
113.7430000000	35
113.7730000000	43
113.8030000000	32
113.8330000000	30
113.8630000000	38
113.8930000000	40
113.9230000000	34
113.9530000000	41
113.9830000000	42
114.0130000000	42
114.0430000000	44
114.0730000000	34
114.1030000000	51
114.1330000000	43
114.1630000000	51
114.1930000000	48
114.2230000000	37
114.2530000000	45
114.2830000000	52
114.3130000000	42
114.3430000000	53
114.3730000000	37
114.4030000000	38
114.4330000000	45
114.4630000000	1
114.4930000000	1
114.5230000000	1
114.5530000000	1
114.5830000000	1
