0.3130000000	1
0.3430000000	1
0.3730000000	1
0.4030000000	1
0.4330000000	1
0.4630000000	1
0.4930000000	1
0.5230000000	1
0.5530000000	1
0.5830000000	1
0.6130000000	1
0.6430000000	1
0.6730000000	2
0.7030000000	1
0.7330000000	2
0.7630000000	2
0.7930000000	1
0.8230000000	1
0.8530000000	2
0.8830000000	1
0.9130000000	1
0.9430000000	1
0.9730000000	1
1.0030000000	1
1.0330000000	1
1.0630000000	1
1.0930000000	1
1.1230000000	1
1.1530000000	1
1.1830000000	1
1.2130000000	1
1.2430000000	1
1.2730000000	1
1.3030000000	1
1.3330000000	1
1.3630000000	1
1.3930000000	1
1.4230000000	2
1.4530000000	2
1.4830000000	1
1.5130000000	1
1.5430000000	1
1.5730000000	1
1.6030000000	1
1.6330000000	2
1.6630000000	1
1.6930000000	3
1.7230000000	2
1.7530000000	1
1.7830000000	1
1.8130000000	1
1.8430000000	1
1.8730000000	1
1.9030000000	1
1.9330000000	1
1.9630000000	1
1.9930000000	1
2.0230000000	1
2.0530000000	1
2.0830000000	1
2.1130000000	1
2.1430000000	1
2.1730000000	1
2.2030000000	1
2.2330000000	2
2.2630000000	1
2.2930000000	2
2.3230000000	2
2.3530000000	1
2.3830000000	1
2.4130000000	2
2.4430000000	2
2.4730000000	1
2.5030000000	1
2.5330000000	1
2.5630000000	1
2.5930000000	2
2.6230000000	2
2.6530000000	1
2.6830000000	1
2.7130000000	2
2.7430000000	2
2.7730000000	2
2.8030000000	2
2.8330000000	1
2.8630000000	1
2.8930000000	2
2.9230000000	2
2.9530000000	3
2.9830000000	2
3.0130000000	1
3.0430000000	2
3.0730000000	1
3.1030000000	2
3.1330000000	4
3.1630000000	0
3.1930000000	2
3.2230000000	4
3.2530000000	2
3.2830000000	2
3.3130000000	1
3.3430000000	2
3.3730000000	2
3.4030000000	4
3.4330000000	1
3.4630000000	2
3.4930000000	3
3.5230000000	2
3.5530000000	1
3.5830000000	1
3.6130000000	3
3.6430000000	3
3.6730000000	3
3.7030000000	2
3.7330000000	2
3.7630000000	1
3.7930000000	4
3.8230000000	5
3.8530000000	2
3.8830000000	4
3.9130000000	3
3.9430000000	2
3.9730000000	2
4.0030000000	1
4.0330000000	3
4.0630000000	3
4.0930000000	3
4.1230000000	1
4.1530000000	5
4.1830000000	3
4.2130000000	4
4.2430000000	3
4.2730000000	5
4.3030000000	3
4.3330000000	6
4.3630000000	8
4.3930000000	4
4.4230000000	7
4.4530000000	11
4.4830000000	18
4.5130000000	28
4.5430000000	29
4.5730000000	56
4.6030000000	66
4.6330000000	96
4.6630000000	117
4.6930000000	129
4.7230000000	118
4.7530000000	150
4.7830000000	130
4.8130000000	144
4.8430000000	126
4.8730000000	142
4.9030000000	140
4.9330000000	112
4.9630000000	144
4.9930000000	122
5.0230000000	140
5.0530000000	152
5.0830000000	137
5.1130000000	161
5.1430000000	145
5.1730000000	146
5.2030000000	149
5.2330000000	145
5.2630000000	158
5.2930000000	151
5.3230000000	158
5.3530000000	146
5.3830000000	141
5.4130000000	150
5.4430000000	122
5.4730000000	147
5.5030000000	160
5.5330000000	144
5.5630000000	126
5.5930000000	153
5.6230000000	131
5.6530000000	147
5.6830000000	147
5.7130000000	170
5.7430000000	131
5.7730000000	148
5.8030000000	154
5.8330000000	141
5.8630000000	154
5.8930000000	161
5.9230000000	140
5.9530000000	144
5.9830000000	144
6.0130000000	139
6.0430000000	147
6.0730000000	129
6.1030000000	137
6.1330000000	133
6.1630000000	151
6.1930000000	163
6.2230000000	159
6.2530000000	149
6.2830000000	142
6.3130000000	131
6.3430000000	156
6.3730000000	163
6.4030000000	142
6.4330000000	157
6.4630000000	135
6.4930000000	121
6.5230000000	150
6.5530000000	149
6.5830000000	139
6.6130000000	163
6.6430000000	159
6.6730000000	139
6.7030000000	125
6.7330000000	155
6.7630000000	154
6.7930000000	149
6.8230000000	146
6.8530000000	126
6.8830000000	132
6.9130000000	150
6.9430000000	150
6.9730000000	149
7.0030000000	149
7.0330000000	152
7.0630000000	156
7.0930000000	131
7.1230000000	142
7.1530000000	131
7.1830000000	143
7.2130000000	143
7.2430000000	147
7.2730000000	139
7.3030000000	158
7.3330000000	162
7.3630000000	137
7.3930000000	128
7.4230000000	122
7.4530000000	143
7.4830000000	145
7.5130000000	148
7.5430000000	142
7.5730000000	135
7.6030000000	142
7.6330000000	139
7.6630000000	141
7.6930000000	146
7.7230000000	141
7.7530000000	132
7.7830000000	149
7.8130000000	177
7.8430000000	155
7.8730000000	134
7.9030000000	140
7.9330000000	141
7.9630000000	148
7.9930000000	162
8.0230000000	168
8.0530000000	132
8.0830000000	146
8.1130000000	148
8.1430000000	129
8.1730000000	143
8.2030000000	146
8.2330000000	150
8.2630000000	160
8.2930000000	128
8.3230000000	150
8.3530000000	149
8.3830000000	130
8.4130000000	148
8.4430000000	130
8.4730000000	139
8.5030000000	136
8.5330000000	173
8.5630000000	146
8.5930000000	140
8.6230000000	144
8.6530000000	140
8.6830000000	124
8.7130000000	145
8.7430000000	144
8.7730000000	143
8.8030000000	139
8.8330000000	123
8.8630000000	127
8.8930000000	133
8.9230000000	151
8.9530000000	139
8.9830000000	163
9.0130000000	152
9.0430000000	158
9.0730000000	154
9.1030000000	170
9.1330000000	153
9.1630000000	129
9.1930000000	132
9.2230000000	155
9.2530000000	142
9.2830000000	143
9.3130000000	146
9.3430000000	137
9.3730000000	148
9.4030000000	147
9.4330000000	132
9.4630000000	129
9.4930000000	164
9.5230000000	157
9.5530000000	154
9.5830000000	147
9.6130000000	144
9.6430000000	153
9.6730000000	151
9.7030000000	150
9.7330000000	148
9.7630000000	152
9.7930000000	140
9.8230000000	135
9.8530000000	167
9.8830000000	154
9.9130000000	150
9.9430000000	142
9.9730000000	147
10.0030000000	133
10.0330000000	131
10.0630000000	159
10.0930000000	151
10.1230000000	160
10.1530000000	161
10.1830000000	113
10.2130000000	143
10.2430000000	154
10.2730000000	144
10.3030000000	140
10.3330000000	154
10.3630000000	178
10.3930000000	152
10.4230000000	126
10.4530000000	147
10.4830000000	141
10.5130000000	144
10.5430000000	131
10.5730000000	156
10.6030000000	158
10.6330000000	149
10.6630000000	136
10.6930000000	156
10.7230000000	172
10.7530000000	152
10.7830000000	160
10.8130000000	140
10.8430000000	150
10.8730000000	146
10.9030000000	159
10.9330000000	148
10.9630000000	144
10.9930000000	151
11.0230000000	155
11.0530000000	148
11.0830000000	128
11.1130000000	159
11.1430000000	158
11.1730000000	133
11.2030000000	163
11.2330000000	131
11.2630000000	124
11.2930000000	159
11.3230000000	160
11.3530000000	153
11.3830000000	137
11.4130000000	158
11.4430000000	149
11.4730000000	141
11.5030000000	168
11.5330000000	173
11.5630000000	130
11.5930000000	140
11.6230000000	127
11.6530000000	147
11.6830000000	163
11.7130000000	142
11.7430000000	151
11.7730000000	150
11.8030000000	150
11.8330000000	140
11.8630000000	145
11.8930000000	164
11.9230000000	136
11.9530000000	162
11.9830000000	164
12.0130000000	146
12.0430000000	136
12.0730000000	143
12.1030000000	153
12.1330000000	140
12.1630000000	144
12.1930000000	138
12.2230000000	152
12.2530000000	126
12.2830000000	139
12.3130000000	151
12.3430000000	155
12.3730000000	143
12.4030000000	135
12.4330000000	146
12.4630000000	166
12.4930000000	161
12.5230000000	147
12.5530000000	156
12.5830000000	137
12.6130000000	141
12.6430000000	138
12.6730000000	141
12.7030000000	137
12.7330000000	146
12.7630000000	153
12.7930000000	146
12.8230000000	146
12.8530000000	144
12.8830000000	146
12.9130000000	156
12.9430000000	131
12.9730000000	134
13.0030000000	151
13.0330000000	128
13.0630000000	136
13.0930000000	151
13.1230000000	144
13.1530000000	148
13.1830000000	158
13.2130000000	135
13.2430000000	147
13.2730000000	144
13.3030000000	138
13.3330000000	153
13.3630000000	133
13.3930000000	124
13.4230000000	153
13.4530000000	126
13.4830000000	122
13.5130000000	148
13.5430000000	161
13.5730000000	155
13.6030000000	155
13.6330000000	149
13.6630000000	149
13.6930000000	142
13.7230000000	145
13.7530000000	157
13.7830000000	138
13.8130000000	132
13.8430000000	121
13.8730000000	150
13.9030000000	158
13.9330000000	156
13.9630000000	134
13.9930000000	138
14.0230000000	140
14.0530000000	162
14.0830000000	157
14.1130000000	150
14.1430000000	158
14.1730000000	153
14.2030000000	156
14.2330000000	155
14.2630000000	134
14.2930000000	136
14.3230000000	137
14.3530000000	140
14.3830000000	143
14.4130000000	153
14.4430000000	144
14.4730000000	137
14.5030000000	158
14.5330000000	176
14.5630000000	137
14.5930000000	165
14.6230000000	156
14.6530000000	169
14.6830000000	160
14.7130000000	151
14.7430000000	168
14.7730000000	127
14.8030000000	144
14.8330000000	145
14.8630000000	142
14.8930000000	143
14.9230000000	149
14.9530000000	168
14.9830000000	135
15.0130000000	161
15.0430000000	179
15.0730000000	150
15.1030000000	134
15.1330000000	141
15.1630000000	170
15.1930000000	137
15.2230000000	149
15.2530000000	153
15.2830000000	162
15.3130000000	146
15.3430000000	132
15.3730000000	150
15.4030000000	140
15.4330000000	171
15.4630000000	142
15.4930000000	136
15.5230000000	136
15.5530000000	153
15.5830000000	139
15.6130000000	120
15.6430000000	159
15.6730000000	165
15.7030000000	145
15.7330000000	122
15.7630000000	145
15.7930000000	139
15.8230000000	145
15.8530000000	155
15.8830000000	159
15.9130000000	137
15.9430000000	137
15.9730000000	139
16.0030000000	163
16.0330000000	139
16.0630000000	134
16.0930000000	151
16.1230000000	153
16.1530000000	128
16.1830000000	134
16.2130000000	135
16.2430000000	168
16.2730000000	138
16.3030000000	134
16.3330000000	161
16.3630000000	161
16.3930000000	154
16.4230000000	161
16.4530000000	129
16.4830000000	130
16.5130000000	134
16.5430000000	126
16.5730000000	152
16.6030000000	139
16.6330000000	148
16.6630000000	137
16.6930000000	129
16.7230000000	141
16.7530000000	141
16.7830000000	146
16.8130000000	136
16.8430000000	151
16.8730000000	162
16.9030000000	137
16.9330000000	135
16.9630000000	162
16.9930000000	132
17.0230000000	151
17.0530000000	157
17.0830000000	157
17.1130000000	159
17.1430000000	140
17.1730000000	147
17.2030000000	138
17.2330000000	144
17.2630000000	141
17.2930000000	156
17.3230000000	140
17.3530000000	139
17.3830000000	146
17.4130000000	144
17.4430000000	133
17.4730000000	141
17.5030000000	153
17.5330000000	152
17.5630000000	165
17.5930000000	160
17.6230000000	140
17.6530000000	158
17.6830000000	151
17.7130000000	160
17.7430000000	161
17.7730000000	135
17.8030000000	118
17.8330000000	137
17.8630000000	156
17.8930000000	144
17.9230000000	139
17.9530000000	130
17.9830000000	149
18.0130000000	146
18.0430000000	123
18.0730000000	171
18.1030000000	151
18.1330000000	163
18.1630000000	125
18.1930000000	143
18.2230000000	139
18.2530000000	152
18.2830000000	122
18.3130000000	120
18.3430000000	137
18.3730000000	150
18.4030000000	161
18.4330000000	145
18.4630000000	139
18.4930000000	155
18.5230000000	130
18.5530000000	165
18.5830000000	115
18.6130000000	149
18.6430000000	154
18.6730000000	122
18.7030000000	119
18.7330000000	135
18.7630000000	125
18.7930000000	140
18.8230000000	182
18.8530000000	151
18.8830000000	160
18.9130000000	130
18.9430000000	157
18.9730000000	150
19.0030000000	162
19.0330000000	139
19.0630000000	161
19.0930000000	130
19.1230000000	133
19.1530000000	128
19.1830000000	139
19.2130000000	137
19.2430000000	155
19.2730000000	167
19.3030000000	159
19.3330000000	154
19.3630000000	154
19.3930000000	179
19.4230000000	197
19.4530000000	213
19.4830000000	277
19.5130000000	310
19.5430000000	310
19.5730000000	360
19.6030000000	353
19.6330000000	277
19.6630000000	244
19.6930000000	192
19.7230000000	179
19.7530000000	164
19.7830000000	172
19.8130000000	156
19.8430000000	156
19.8730000000	121
19.9030000000	158
19.9330000000	171
19.9630000000	151
19.9930000000	149
20.0230000000	146
20.0530000000	143
20.0830000000	137
20.1130000000	147
20.1430000000	150
20.1730000000	145
20.2030000000	110
20.2330000000	146
20.2630000000	173
20.2930000000	145
20.3230000000	167
20.3530000000	148
20.3830000000	158
20.4130000000	161
20.4430000000	159
20.4730000000	152
20.5030000000	150
20.5330000000	149
20.5630000000	156
20.5930000000	137
20.6230000000	152
20.6530000000	143
20.6830000000	155
20.7130000000	154
20.7430000000	158
20.7730000000	159
20.8030000000	182
20.8330000000	155
20.8630000000	148
20.8930000000	173
20.9230000000	138
20.9530000000	169
20.9830000000	160
21.0130000000	147
21.0430000000	156
21.0730000000	150
21.1030000000	141
21.1330000000	154
21.1630000000	161
21.1930000000	141
21.2230000000	147
21.2530000000	137
21.2830000000	148
21.3130000000	164
21.3430000000	147
21.3730000000	149
21.4030000000	176
21.4330000000	150
21.4630000000	156
21.4930000000	148
21.5230000000	161
21.5530000000	171
21.5830000000	174
21.6130000000	162
21.6430000000	150
21.6730000000	159
21.7030000000	164
21.7330000000	155
21.7630000000	152
21.7930000000	159
21.8230000000	141
21.8530000000	155
21.8830000000	154
21.9130000000	157
21.9430000000	163
21.9730000000	183
22.0030000000	164
22.0330000000	173
22.0630000000	165
22.0930000000	152
22.1230000000	169
22.1530000000	164
22.1830000000	158
22.2130000000	163
22.2430000000	147
22.2730000000	168
22.3030000000	176
22.3330000000	185
22.3630000000	177
22.3930000000	158
22.4230000000	170
22.4530000000	168
22.4830000000	154
22.5130000000	165
22.5430000000	168
22.5730000000	180
22.6030000000	179
22.6330000000	201
22.6630000000	225
22.6930000000	199
22.7230000000	218
22.7530000000	226
22.7830000000	237
22.8130000000	220
22.8430000000	194
22.8730000000	173
22.9030000000	173
22.9330000000	183
22.9630000000	194
22.9930000000	144
23.0230000000	172
23.0530000000	167
23.0830000000	161
23.1130000000	189
23.1430000000	159
23.1730000000	183
23.2030000000	180
23.2330000000	177
23.2630000000	181
23.2930000000	158
23.3230000000	169
23.3530000000	139
23.3830000000	159
23.4130000000	176
23.4430000000	144
23.4730000000	159
23.5030000000	160
23.5330000000	183
23.5630000000	171
23.5930000000	158
23.6230000000	159
23.6530000000	183
23.6830000000	167
23.7130000000	165
23.7430000000	165
23.7730000000	187
23.8030000000	173
23.8330000000	167
23.8630000000	164
23.8930000000	176
23.9230000000	179
23.9530000000	157
23.9830000000	146
24.0130000000	180
24.0430000000	168
24.0730000000	163
24.1030000000	161
24.1330000000	163
24.1630000000	173
24.1930000000	144
24.2230000000	165
24.2530000000	178
24.2830000000	165
24.3130000000	153
24.3430000000	161
24.3730000000	152
24.4030000000	164
24.4330000000	152
24.4630000000	155
24.4930000000	167
24.5230000000	184
24.5530000000	173
24.5830000000	163
24.6130000000	150
24.6430000000	172
24.6730000000	177
24.7030000000	175
24.7330000000	171
24.7630000000	184
24.7930000000	177
24.8230000000	160
24.8530000000	167
24.8830000000	148
24.9130000000	150
24.9430000000	155
24.9730000000	181
25.0030000000	172
25.0330000000	165
25.0630000000	183
25.0930000000	156
25.1230000000	153
25.1530000000	172
25.1830000000	159
25.2130000000	166
25.2430000000	154
25.2730000000	159
25.3030000000	169
25.3330000000	155
25.3630000000	151
25.3930000000	178
25.4230000000	182
25.4530000000	183
25.4830000000	162
25.5130000000	175
25.5430000000	160
25.5730000000	141
25.6030000000	168
25.6330000000	169
25.6630000000	174
25.6930000000	162
25.7230000000	164
25.7530000000	177
25.7830000000	205
25.8130000000	179
25.8430000000	174
25.8730000000	166
25.9030000000	152
25.9330000000	170
25.9630000000	182
25.9930000000	176
26.0230000000	194
26.0530000000	174
26.0830000000	166
26.1130000000	178
26.1430000000	172
26.1730000000	216
26.2030000000	214
26.2330000000	243
26.2630000000	313
26.2930000000	426
26.3230000000	509
26.3530000000	647
26.3830000000	895
26.4130000000	1017
26.4430000000	958
26.4730000000	824
26.5030000000	592
26.5330000000	434
26.5630000000	318
26.5930000000	257
26.6230000000	246
26.6530000000	204
26.6830000000	186
26.7130000000	202
26.7430000000	183
26.7730000000	168
26.8030000000	185
26.8330000000	164
26.8630000000	157
26.8930000000	163
26.9230000000	153
26.9530000000	159
26.9830000000	182
27.0130000000	167
27.0430000000	154
27.0730000000	166
27.1030000000	154
27.1330000000	152
27.1630000000	165
27.1930000000	156
27.2230000000	130
27.2530000000	131
27.2830000000	143
27.3130000000	161
27.3430000000	149
27.3730000000	161
27.4030000000	162
27.4330000000	134
27.4630000000	157
27.4930000000	165
27.5230000000	154
27.5530000000	136
27.5830000000	144
27.6130000000	138
27.6430000000	150
27.6730000000	134
27.7030000000	148
27.7330000000	157
27.7630000000	163
27.7930000000	148
27.8230000000	146
27.8530000000	152
27.8830000000	142
27.9130000000	152
27.9430000000	159
27.9730000000	145
28.0030000000	148
28.0330000000	148
28.0630000000	144
28.0930000000	152
28.1230000000	136
28.1530000000	150
28.1830000000	164
28.2130000000	152
28.2430000000	170
28.2730000000	141
28.3030000000	151
28.3330000000	159
28.3630000000	156
28.3930000000	127
28.4230000000	169
28.4530000000	157
28.4830000000	158
28.5130000000	160
28.5430000000	146
28.5730000000	151
28.6030000000	139
28.6330000000	151
28.6630000000	148
28.6930000000	163
28.7230000000	168
28.7530000000	164
28.7830000000	147
28.8130000000	170
28.8430000000	179
28.8730000000	171
28.9030000000	148
28.9330000000	171
28.9630000000	145
28.9930000000	146
29.0230000000	147
29.0530000000	160
29.0830000000	154
29.1130000000	167
29.1430000000	146
29.1730000000	139
29.2030000000	150
29.2330000000	141
29.2630000000	119
29.2930000000	142
29.3230000000	135
29.3530000000	153
29.3830000000	146
29.4130000000	145
29.4430000000	131
29.4730000000	135
29.5030000000	120
29.5330000000	139
29.5630000000	149
29.5930000000	118
29.6230000000	150
29.6530000000	135
29.6830000000	136
29.7130000000	138
29.7430000000	133
29.7730000000	129
29.8030000000	127
29.8330000000	173
29.8630000000	113
29.8930000000	133
29.9230000000	160
29.9530000000	135
29.9830000000	159
30.0130000000	130
30.0430000000	156
30.0730000000	150
30.1030000000	197
30.1330000000	171
30.1630000000	216
30.1930000000	271
30.2230000000	419
30.2530000000	595
30.2830000000	807
30.3130000000	1201
30.3430000000	1782
30.3730000000	2480
30.4030000000	3020
30.4330000000	2944
30.4630000000	2267
30.4930000000	1570
30.5230000000	1107
30.5530000000	676
30.5830000000	500
30.6130000000	343
30.6430000000	250
30.6730000000	201
30.7030000000	146
30.7330000000	169
30.7630000000	156
30.7930000000	151
30.8230000000	161
30.8530000000	147
30.8830000000	132
30.9130000000	136
30.9430000000	140
30.9730000000	146
31.0030000000	139
31.0330000000	149
31.0630000000	126
31.0930000000	141
31.1230000000	147
31.1530000000	131
31.1830000000	119
31.2130000000	126
31.2430000000	134
31.2730000000	137
31.3030000000	139
31.3330000000	137
31.3630000000	149
31.3930000000	157
31.4230000000	133
31.4530000000	126
31.4830000000	133
31.5130000000	143
31.5430000000	152
31.5730000000	142
31.6030000000	156
31.6330000000	181
31.6630000000	199
31.6930000000	258
31.7230000000	331
31.7530000000	503
31.7830000000	667
31.8130000000	970
31.8430000000	1382
31.8730000000	1667
31.9030000000	1611
31.9330000000	1415
31.9630000000	1159
31.9930000000	1008
32.0230000000	977
32.0530000000	1016
32.0830000000	1102
32.1130000000	1213
32.1430000000	1127
32.1730000000	974
32.2030000000	784
32.2330000000	539
32.2630000000	371
32.2930000000	269
32.3230000000	217
32.3530000000	165
32.3830000000	152
32.4130000000	125
32.4430000000	109
32.4730000000	137
32.5030000000	131
32.5330000000	119
32.5630000000	110
32.5930000000	113
32.6230000000	115
32.6530000000	116
32.6830000000	125
32.7130000000	107
32.7430000000	112
32.7730000000	115
32.8030000000	111
32.8330000000	118
32.8630000000	115
32.8930000000	110
32.9230000000	95
32.9530000000	115
32.9830000000	122
33.0130000000	101
33.0430000000	113
33.0730000000	129
33.1030000000	114
33.1330000000	109
33.1630000000	130
33.1930000000	115
33.2230000000	120
33.2530000000	148
33.2830000000	147
33.3130000000	133
33.3430000000	132
33.3730000000	117
33.4030000000	105
33.4330000000	113
33.4630000000	129
33.4930000000	119
33.5230000000	102
33.5530000000	99
33.5830000000	90
33.6130000000	95
33.6430000000	106
33.6730000000	103
33.7030000000	89
33.7330000000	94
33.7630000000	99
33.7930000000	102
33.8230000000	100
33.8530000000	94
33.8830000000	87
33.9130000000	104
33.9430000000	106
33.9730000000	105
34.0030000000	103
34.0330000000	104
34.0630000000	93
34.0930000000	94
34.1230000000	99
34.1530000000	88
34.1830000000	89
34.2130000000	70
34.2430000000	97
34.2730000000	102
34.3030000000	89
34.3330000000	95
34.3630000000	105
34.3930000000	93
34.4230000000	111
34.4530000000	109
34.4830000000	95
34.5130000000	90
34.5430000000	94
34.5730000000	103
34.6030000000	105
34.6330000000	101
34.6630000000	118
34.6930000000	96
34.7230000000	104
34.7530000000	112
34.7830000000	105
34.8130000000	108
34.8430000000	99
34.8730000000	95
34.9030000000	95
34.9330000000	101
34.9630000000	104
34.9930000000	94
35.0230000000	102
35.0530000000	107
35.0830000000	98
35.1130000000	108
35.1430000000	108
35.1730000000	121
35.2030000000	143
35.2330000000	176
35.2630000000	222
35.2930000000	260
35.3230000000	288
35.3530000000	274
35.3830000000	258
35.4130000000	225
35.4430000000	182
35.4730000000	171
35.5030000000	127
35.5330000000	125
35.5630000000	106
35.5930000000	99
35.6230000000	85
35.6530000000	90
35.6830000000	92
35.7130000000	99
35.7430000000	92
35.7730000000	87
35.8030000000	91
35.8330000000	89
35.8630000000	100
35.8930000000	102
35.9230000000	92
35.9530000000	99
35.9830000000	106
36.0130000000	78
36.0430000000	99
36.0730000000	106
36.1030000000	98
36.1330000000	87
36.1630000000	84
36.1930000000	77
36.2230000000	91
36.2530000000	97
36.2830000000	102
36.3130000000	99
36.3430000000	93
36.3730000000	105
36.4030000000	154
36.4330000000	121
36.4630000000	136
36.4930000000	156
36.5230000000	175
36.5530000000	235
36.5830000000	327
36.6130000000	416
36.6430000000	458
36.6730000000	446
36.7030000000	355
36.7330000000	270
36.7630000000	219
36.7930000000	176
36.8230000000	124
36.8530000000	111
36.8830000000	109
36.9130000000	122
36.9430000000	108
36.9730000000	101
37.0030000000	91
37.0330000000	79
37.0630000000	108
37.0930000000	84
37.1230000000	86
37.1530000000	98
37.1830000000	91
37.2130000000	78
37.2430000000	92
37.2730000000	95
37.3030000000	79
37.3330000000	80
37.3630000000	95
37.3930000000	92
37.4230000000	96
37.4530000000	97
37.4830000000	99
37.5130000000	96
37.5430000000	88
37.5730000000	80
37.6030000000	106
37.6330000000	101
37.6630000000	76
37.6930000000	78
37.7230000000	78
37.7530000000	81
37.7830000000	92
37.8130000000	95
37.8430000000	98
37.8730000000	87
37.9030000000	90
37.9330000000	88
37.9630000000	87
37.9930000000	88
38.0230000000	102
38.0530000000	91
38.0830000000	81
38.1130000000	92
38.1430000000	88
38.1730000000	87
38.2030000000	105
38.2330000000	88
38.2630000000	83
38.2930000000	90
38.3230000000	91
38.3530000000	90
38.3830000000	97
38.4130000000	89
38.4430000000	85
38.4730000000	86
38.5030000000	76
38.5330000000	88
38.5630000000	99
38.5930000000	90
38.6230000000	94
38.6530000000	97
38.6830000000	98
38.7130000000	93
38.7430000000	83
38.7730000000	80
38.8030000000	78
38.8330000000	88
38.8630000000	94
38.8930000000	86
38.9230000000	96
38.9530000000	96
38.9830000000	87
39.0130000000	99
39.0430000000	93
39.0730000000	88
39.1030000000	92
39.1330000000	93
39.1630000000	82
39.1930000000	111
39.2230000000	98
39.2530000000	117
39.2830000000	93
39.3130000000	107
39.3430000000	96
39.3730000000	98
39.4030000000	105
39.4330000000	92
39.4630000000	119
39.4930000000	115
39.5230000000	154
39.5530000000	204
39.5830000000	254
39.6130000000	367
39.6430000000	528
39.6730000000	775
39.7030000000	1041
39.7330000000	1229
39.7630000000	1221
39.7930000000	1050
39.8230000000	818
39.8530000000	636
39.8830000000	421
39.9130000000	300
39.9430000000	180
39.9730000000	149
40.0030000000	111
40.0330000000	103
40.0630000000	119
40.0930000000	98
40.1230000000	96
40.1530000000	92
40.1830000000	95
40.2130000000	80
40.2430000000	90
40.2730000000	81
40.3030000000	90
40.3330000000	92
40.3630000000	81
40.3930000000	77
40.4230000000	96
40.4530000000	71
40.4830000000	95
40.5130000000	92
40.5430000000	86
40.5730000000	96
40.6030000000	96
40.6330000000	68
40.6630000000	81
40.6930000000	80
40.7230000000	72
40.7530000000	87
40.7830000000	81
40.8130000000	68
40.8430000000	94
40.8730000000	75
40.9030000000	78
40.9330000000	94
40.9630000000	96
40.9930000000	94
41.0230000000	96
41.0530000000	87
41.0830000000	87
41.1130000000	101
41.1430000000	98
41.1730000000	95
41.2030000000	83
41.2330000000	96
41.2630000000	105
41.2930000000	97
41.3230000000	89
41.3530000000	90
41.3830000000	79
41.4130000000	92
41.4430000000	99
41.4730000000	73
41.5030000000	88
41.5330000000	89
41.5630000000	88
41.5930000000	88
41.6230000000	87
41.6530000000	75
41.6830000000	76
41.7130000000	68
41.7430000000	72
41.7730000000	88
41.8030000000	95
41.8330000000	87
41.8630000000	80
41.8930000000	95
41.9230000000	96
41.9530000000	78
41.9830000000	82
42.0130000000	90
42.0430000000	83
42.0730000000	93
42.1030000000	92
42.1330000000	86
42.1630000000	80
42.1930000000	83
42.2230000000	88
42.2530000000	87
42.2830000000	74
42.3130000000	73
42.3430000000	84
42.3730000000	84
42.4030000000	80
42.4330000000	76
42.4630000000	86
42.4930000000	90
42.5230000000	84
42.5530000000	79
42.5830000000	74
42.6130000000	79
42.6430000000	86
42.6730000000	88
42.7030000000	76
42.7330000000	82
42.7630000000	104
42.7930000000	101
42.8230000000	103
42.8530000000	81
42.8830000000	105
42.9130000000	117
42.9430000000	140
42.9730000000	155
43.0030000000	219
43.0330000000	270
43.0630000000	407
43.0930000000	612
43.1230000000	849
43.1530000000	1107
43.1830000000	1256
43.2130000000	1211
43.2430000000	1069
43.2730000000	927
43.3030000000	650
43.3330000000	461
43.3630000000	333
43.3930000000	238
43.4230000000	163
43.4530000000	116
43.4830000000	112
43.5130000000	118
43.5430000000	96
43.5730000000	91
43.6030000000	115
43.6330000000	91
43.6630000000	101
43.6930000000	120
43.7230000000	107
43.7530000000	117
43.7830000000	128
43.8130000000	111
43.8430000000	92
43.8730000000	95
43.9030000000	95
43.9330000000	87
43.9630000000	82
43.9930000000	77
44.0230000000	68
44.0530000000	71
44.0830000000	86
44.1130000000	86
44.1430000000	82
44.1730000000	60
44.2030000000	87
44.2330000000	81
44.2630000000	74
44.2930000000	71
44.3230000000	72
44.3530000000	82
44.3830000000	69
44.4130000000	72
44.4430000000	66
44.4730000000	70
44.5030000000	72
44.5330000000	83
44.5630000000	77
44.5930000000	72
44.6230000000	78
44.6530000000	87
44.6830000000	80
44.7130000000	68
44.7430000000	62
44.7730000000	85
44.8030000000	82
44.8330000000	94
44.8630000000	112
44.8930000000	154
44.9230000000	232
44.9530000000	278
44.9830000000	381
45.0130000000	542
45.0430000000	689
45.0730000000	761
45.1030000000	763
45.1330000000	641
45.1630000000	574
45.1930000000	416
45.2230000000	309
45.2530000000	195
45.2830000000	128
45.3130000000	123
45.3430000000	98
45.3730000000	88
45.4030000000	75
45.4330000000	66
45.4630000000	65
45.4930000000	79
45.5230000000	78
45.5530000000	71
45.5830000000	76
45.6130000000	85
45.6430000000	83
45.6730000000	72
45.7030000000	67
45.7330000000	70
45.7630000000	74
45.7930000000	73
45.8230000000	62
45.8530000000	74
45.8830000000	92
45.9130000000	79
45.9430000000	93
45.9730000000	109
46.0030000000	130
46.0330000000	158
46.0630000000	175
46.0930000000	189
46.1230000000	178
46.1530000000	151
46.1830000000	175
46.2130000000	124
46.2430000000	124
46.2730000000	83
46.3030000000	100
46.3330000000	85
46.3630000000	96
46.3930000000	96
46.4230000000	107
46.4530000000	99
46.4830000000	108
46.5130000000	98
46.5430000000	120
46.5730000000	107
46.6030000000	93
46.6330000000	89
46.6630000000	82
46.6930000000	70
46.7230000000	72
46.7530000000	83
46.7830000000	96
46.8130000000	105
46.8430000000	117
46.8730000000	164
46.9030000000	200
46.9330000000	266
46.9630000000	300
46.9930000000	283
47.0230000000	260
47.0530000000	210
47.0830000000	196
47.1130000000	144
47.1430000000	121
47.1730000000	82
47.2030000000	73
47.2330000000	68
47.2630000000	82
47.2930000000	71
47.3230000000	61
47.3530000000	82
47.3830000000	66
47.4130000000	84
47.4430000000	74
47.4730000000	76
47.5030000000	79
47.5330000000	91
47.5630000000	89
47.5930000000	90
47.6230000000	92
47.6530000000	81
47.6830000000	72
47.7130000000	66
47.7430000000	74
47.7730000000	66
47.8030000000	56
47.8330000000	58
47.8630000000	57
47.8930000000	56
47.9230000000	50
47.9530000000	59
47.9830000000	56
48.0130000000	67
48.0430000000	59
48.0730000000	51
48.1030000000	64
48.1330000000	55
48.1630000000	50
48.1930000000	50
48.2230000000	62
48.2530000000	50
48.2830000000	64
48.3130000000	65
48.3430000000	69
48.3730000000	42
48.4030000000	48
48.4330000000	61
48.4630000000	65
48.4930000000	55
48.5230000000	48
48.5530000000	52
48.5830000000	57
48.6130000000	55
48.6430000000	66
48.6730000000	54
48.7030000000	56
48.7330000000	46
48.7630000000	51
48.7930000000	60
48.8230000000	49
48.8530000000	50
48.8830000000	51
48.9130000000	49
48.9430000000	62
48.9730000000	59
49.0030000000	54
49.0330000000	59
49.0630000000	52
49.0930000000	59
49.1230000000	60
49.1530000000	46
49.1830000000	64
49.2130000000	58
49.2430000000	61
49.2730000000	50
49.3030000000	50
49.3330000000	41
49.3630000000	53
49.3930000000	56
49.4230000000	54
49.4530000000	63
49.4830000000	60
49.5130000000	56
49.5430000000	50
49.5730000000	67
49.6030000000	50
49.6330000000	64
49.6630000000	62
49.6930000000	56
49.7230000000	60
49.7530000000	60
49.7830000000	45
49.8130000000	51
49.8430000000	59
49.8730000000	51
49.9030000000	56
49.9330000000	57
49.9630000000	60
49.9930000000	45
50.0230000000	55
50.0530000000	59
50.0830000000	57
50.1130000000	63
50.1430000000	62
50.1730000000	73
50.2030000000	50
50.2330000000	45
50.2630000000	55
50.2930000000	71
50.3230000000	60
50.3530000000	55
50.3830000000	70
50.4130000000	88
50.4430000000	84
50.4730000000	82
50.5030000000	96
50.5330000000	100
50.5630000000	96
50.5930000000	90
50.6230000000	88
50.6530000000	60
50.6830000000	61
50.7130000000	64
50.7430000000	49
50.7730000000	50
50.8030000000	56
50.8330000000	56
50.8630000000	53
50.8930000000	52
50.9230000000	51
50.9530000000	54
50.9830000000	50
51.0130000000	46
51.0430000000	54
51.0730000000	56
51.1030000000	55
51.1330000000	58
51.1630000000	52
51.1930000000	45
51.2230000000	45
51.2530000000	56
51.2830000000	57
51.3130000000	48
51.3430000000	61
51.3730000000	64
51.4030000000	49
51.4330000000	45
51.4630000000	50
51.4930000000	59
51.5230000000	55
51.5530000000	54
51.5830000000	49
51.6130000000	45
51.6430000000	48
51.6730000000	55
51.7030000000	51
51.7330000000	54
51.7630000000	52
51.7930000000	52
51.8230000000	58
51.8530000000	49
51.8830000000	54
51.9130000000	67
51.9430000000	46
51.9730000000	50
52.0030000000	48
52.0330000000	51
52.0630000000	69
52.0930000000	77
52.1230000000	77
52.1530000000	74
52.1830000000	76
52.2130000000	103
52.2430000000	86
52.2730000000	75
52.3030000000	76
52.3330000000	62
52.3630000000	56
52.3930000000	50
52.4230000000	64
52.4530000000	50
52.4830000000	45
52.5130000000	52
52.5430000000	46
52.5730000000	65
52.6030000000	57
52.6330000000	56
52.6630000000	42
52.6930000000	52
52.7230000000	61
52.7530000000	53
52.7830000000	54
52.8130000000	41
52.8430000000	47
52.8730000000	44
52.9030000000	52
52.9330000000	61
52.9630000000	53
52.9930000000	49
53.0230000000	55
53.0530000000	45
53.0830000000	53
53.1130000000	74
53.1430000000	49
53.1730000000	65
53.2030000000	45
53.2330000000	62
53.2630000000	60
53.2930000000	52
53.3230000000	51
53.3530000000	55
53.3830000000	67
53.4130000000	45
53.4430000000	52
53.4730000000	58
53.5030000000	49
53.5330000000	61
53.5630000000	57
53.5930000000	49
53.6230000000	46
53.6530000000	52
53.6830000000	66
53.7130000000	68
53.7430000000	62
53.7730000000	63
53.8030000000	72
53.8330000000	100
53.8630000000	133
53.8930000000	157
53.9230000000	129
53.9530000000	99
53.9830000000	117
54.0130000000	112
54.0430000000	87
54.0730000000	86
54.1030000000	62
54.1330000000	59
54.1630000000	52
54.1930000000	44
54.2230000000	51
54.2530000000	47
54.2830000000	59
54.3130000000	61
54.3430000000	43
54.3730000000	52
54.4030000000	59
54.4330000000	47
54.4630000000	46
54.4930000000	47
54.5230000000	40
54.5530000000	52
54.5830000000	54
54.6130000000	49
54.6430000000	38
54.6730000000	35
54.7030000000	52
54.7330000000	56
54.7630000000	54
54.7930000000	42
54.8230000000	48
54.8530000000	76
54.8830000000	76
54.9130000000	100
54.9430000000	108
54.9730000000	126
55.0030000000	99
55.0330000000	146
55.0630000000	85
55.0930000000	120
55.1230000000	91
55.1530000000	88
55.1830000000	59
55.2130000000	54
55.2430000000	56
55.2730000000	72
55.3030000000	67
55.3330000000	81
55.3630000000	87
55.3930000000	93
55.4230000000	114
55.4530000000	115
55.4830000000	113
55.5130000000	122
55.5430000000	111
55.5730000000	108
55.6030000000	88
55.6330000000	85
55.6630000000	80
55.6930000000	66
55.7230000000	58
55.7530000000	57
55.7830000000	38
55.8130000000	50
55.8430000000	45
55.8730000000	52
55.9030000000	50
55.9330000000	52
55.9630000000	54
55.9930000000	47
56.0230000000	54
56.0530000000	62
56.0830000000	42
56.1130000000	43
56.1430000000	42
56.1730000000	50
56.2030000000	45
56.2330000000	46
56.2630000000	41
56.2930000000	50
56.3230000000	41
56.3530000000	57
56.3830000000	45
56.4130000000	46
56.4430000000	52
56.4730000000	51
56.5030000000	57
56.5330000000	41
56.5630000000	46
56.5930000000	52
56.6230000000	42
56.6530000000	54
56.6830000000	46
56.7130000000	42
56.7430000000	43
56.7730000000	54
56.8030000000	44
56.8330000000	45
56.8630000000	44
56.8930000000	42
56.9230000000	40
56.9530000000	41
56.9830000000	45
57.0130000000	48
57.0430000000	43
57.0730000000	52
57.1030000000	60
57.1330000000	47
57.1630000000	40
57.1930000000	54
57.2230000000	52
57.2530000000	47
57.2830000000	45
57.3130000000	55
57.3430000000	57
57.3730000000	49
57.4030000000	45
57.4330000000	35
57.4630000000	53
57.4930000000	37
57.5230000000	42
57.5530000000	47
57.5830000000	46
57.6130000000	50
57.6430000000	62
57.6730000000	44
57.7030000000	40
57.7330000000	42
57.7630000000	53
57.7930000000	48
57.8230000000	42
57.8530000000	41
57.8830000000	34
57.9130000000	49
57.9430000000	44
57.9730000000	45
58.0030000000	47
58.0330000000	48
58.0630000000	44
58.0930000000	49
58.1230000000	51
58.1530000000	34
58.1830000000	37
58.2130000000	48
58.2430000000	52
58.2730000000	51
58.3030000000	48
58.3330000000	60
58.3630000000	46
58.3930000000	48
58.4230000000	48
58.4530000000	39
58.4830000000	45
58.5130000000	55
58.5430000000	40
58.5730000000	54
58.6030000000	45
58.6330000000	39
58.6630000000	39
58.6930000000	35
58.7230000000	41
58.7530000000	56
58.7830000000	50
58.8130000000	49
58.8430000000	50
58.8730000000	57
58.9030000000	48
58.9330000000	40
58.9630000000	43
58.9930000000	56
59.0230000000	49
59.0530000000	56
59.0830000000	38
59.1130000000	37
59.1430000000	40
59.1730000000	50
59.2030000000	43
59.2330000000	39
59.2630000000	43
59.2930000000	48
59.3230000000	40
59.3530000000	45
59.3830000000	40
59.4130000000	45
59.4430000000	46
59.4730000000	47
59.5030000000	39
59.5330000000	53
59.5630000000	43
59.5930000000	50
59.6230000000	56
59.6530000000	55
59.6830000000	46
59.7130000000	70
59.7430000000	47
59.7730000000	44
59.8030000000	50
59.8330000000	47
59.8630000000	47
59.8930000000	47
59.9230000000	38
59.9530000000	52
59.9830000000	54
60.0130000000	47
60.0430000000	61
60.0730000000	61
60.1030000000	64
60.1330000000	81
60.1630000000	119
60.1930000000	117
60.2230000000	137
60.2530000000	119
60.2830000000	112
60.3130000000	122
60.3430000000	124
60.3730000000	96
60.4030000000	78
60.4330000000	72
60.4630000000	62
60.4930000000	61
60.5230000000	59
60.5530000000	41
60.5830000000	56
60.6130000000	52
60.6430000000	43
60.6730000000	46
60.7030000000	42
60.7330000000	41
60.7630000000	45
60.7930000000	48
60.8230000000	41
60.8530000000	43
60.8830000000	45
60.9130000000	50
60.9430000000	46
60.9730000000	43
61.0030000000	44
61.0330000000	52
61.0630000000	43
61.0930000000	47
61.1230000000	55
61.1530000000	35
61.1830000000	55
61.2130000000	50
61.2430000000	57
61.2730000000	67
61.3030000000	57
61.3330000000	49
61.3630000000	67
61.3930000000	78
61.4230000000	67
61.4530000000	88
61.4830000000	106
61.5130000000	102
61.5430000000	109
61.5730000000	116
61.6030000000	120
61.6330000000	101
61.6630000000	100
61.6930000000	87
61.7230000000	79
61.7530000000	64
61.7830000000	72
61.8130000000	51
61.8430000000	38
61.8730000000	48
61.9030000000	40
61.9330000000	52
61.9630000000	35
61.9930000000	41
62.0230000000	44
62.0530000000	52
62.0830000000	54
62.1130000000	51
62.1430000000	46
62.1730000000	46
62.2030000000	49
62.2330000000	36
62.2630000000	43
62.2930000000	48
62.3230000000	39
62.3530000000	51
62.3830000000	46
62.4130000000	52
62.4430000000	48
62.4730000000	50
62.5030000000	43
62.5330000000	28
62.5630000000	31
62.5930000000	48
62.6230000000	40
62.6530000000	42
62.6830000000	34
62.7130000000	41
62.7430000000	39
62.7730000000	46
62.8030000000	40
62.8330000000	39
62.8630000000	44
62.8930000000	44
62.9230000000	39
62.9530000000	46
62.9830000000	40
63.0130000000	37
63.0430000000	36
63.0730000000	41
63.1030000000	55
63.1330000000	42
63.1630000000	42
63.1930000000	52
63.2230000000	46
63.2530000000	57
63.2830000000	60
63.3130000000	51
63.3430000000	40
63.3730000000	42
63.4030000000	59
63.4330000000	50
63.4630000000	57
63.4930000000	49
63.5230000000	47
63.5530000000	33
63.5830000000	43
63.6130000000	54
63.6430000000	43
63.6730000000	49
63.7030000000	41
63.7330000000	45
63.7630000000	46
63.7930000000	48
63.8230000000	54
63.8530000000	39
63.8830000000	44
63.9130000000	42
63.9430000000	40
63.9730000000	44
64.0030000000	48
64.0330000000	40
64.0630000000	46
64.0930000000	46
64.1230000000	40
64.1530000000	44
64.1830000000	40
64.2130000000	53
64.2430000000	44
64.2730000000	32
64.3030000000	37
64.3330000000	42
64.3630000000	42
64.3930000000	46
64.4230000000	51
64.4530000000	46
64.4830000000	45
64.5130000000	39
64.5430000000	51
64.5730000000	33
64.6030000000	43
64.6330000000	46
64.6630000000	51
64.6930000000	61
64.7230000000	52
64.7530000000	51
64.7830000000	39
64.8130000000	59
64.8430000000	43
64.8730000000	49
64.9030000000	55
64.9330000000	35
64.9630000000	43
64.9930000000	44
65.0230000000	41
65.0530000000	44
65.0830000000	49
65.1130000000	35
65.1430000000	40
65.1730000000	36
65.2030000000	42
65.2330000000	48
65.2630000000	34
65.2930000000	58
65.3230000000	34
65.3530000000	32
65.3830000000	46
65.4130000000	43
65.4430000000	39
65.4730000000	48
65.5030000000	44
65.5330000000	60
65.5630000000	45
65.5930000000	37
65.6230000000	44
65.6530000000	41
65.6830000000	39
65.7130000000	50
65.7430000000	49
65.7730000000	46
65.8030000000	48
65.8330000000	41
65.8630000000	43
65.8930000000	38
65.9230000000	43
65.9530000000	40
65.9830000000	33
66.0130000000	67
66.0430000000	68
66.0730000000	57
66.1030000000	85
66.1330000000	91
66.1630000000	124
66.1930000000	141
66.2230000000	182
66.2530000000	178
66.2830000000	157
66.3130000000	123
66.3430000000	121
66.3730000000	130
66.4030000000	131
66.4330000000	99
66.4630000000	82
66.4930000000	73
66.5230000000	63
66.5530000000	51
66.5830000000	52
66.6130000000	53
66.6430000000	41
66.6730000000	51
66.7030000000	57
66.7330000000	50
66.7630000000	44
66.7930000000	48
66.8230000000	38
66.8530000000	45
66.8830000000	51
66.9130000000	57
66.9430000000	36
66.9730000000	44
67.0030000000	45
67.0330000000	44
67.0630000000	49
67.0930000000	44
67.1230000000	37
67.1530000000	51
67.1830000000	53
67.2130000000	37
67.2430000000	36
67.2730000000	39
67.3030000000	51
67.3330000000	29
67.3630000000	44
67.3930000000	44
67.4230000000	34
67.4530000000	42
67.4830000000	36
67.5130000000	34
67.5430000000	41
67.5730000000	37
67.6030000000	44
67.6330000000	42
67.6630000000	38
67.6930000000	44
67.7230000000	41
67.7530000000	38
67.7830000000	40
67.8130000000	37
67.8430000000	36
67.8730000000	43
67.9030000000	41
67.9330000000	41
67.9630000000	45
67.9930000000	37
68.0230000000	38
68.0530000000	45
68.0830000000	45
68.1130000000	37
68.1430000000	48
68.1730000000	39
68.2030000000	36
68.2330000000	43
68.2630000000	52
68.2930000000	35
68.3230000000	40
68.3530000000	29
68.3830000000	40
68.4130000000	36
68.4430000000	37
68.4730000000	32
68.5030000000	37
68.5330000000	38
68.5630000000	33
68.5930000000	36
68.6230000000	34
68.6530000000	45
68.6830000000	45
68.7130000000	39
68.7430000000	41
68.7730000000	36
68.8030000000	37
68.8330000000	29
68.8630000000	33
68.8930000000	44
68.9230000000	57
68.9530000000	33
68.9830000000	41
69.0130000000	42
69.0430000000	42
69.0730000000	36
69.1030000000	48
69.1330000000	35
69.1630000000	47
69.1930000000	42
69.2230000000	45
69.2530000000	41
69.2830000000	50
69.3130000000	47
69.3430000000	47
69.3730000000	45
69.4030000000	46
69.4330000000	47
69.4630000000	51
69.4930000000	38
69.5230000000	47
69.5530000000	38
69.5830000000	39
69.6130000000	32
69.6430000000	41
69.6730000000	43
69.7030000000	49
69.7330000000	33
69.7630000000	37
69.7930000000	38
69.8230000000	42
69.8530000000	45
69.8830000000	51
69.9130000000	45
69.9430000000	46
69.9730000000	32
70.0030000000	42
70.0330000000	50
70.0630000000	28
70.0930000000	42
70.1230000000	52
70.1530000000	43
70.1830000000	41
70.2130000000	49
70.2430000000	35
70.2730000000	48
70.3030000000	31
70.3330000000	48
70.3630000000	27
70.3930000000	51
70.4230000000	57
70.4530000000	44
70.4830000000	33
70.5130000000	37
70.5430000000	49
70.5730000000	49
70.6030000000	35
70.6330000000	40
70.6630000000	40
70.6930000000	43
70.7230000000	37
70.7530000000	41
70.7830000000	39
70.8130000000	37
70.8430000000	46
70.8730000000	44
70.9030000000	41
70.9330000000	43
70.9630000000	45
70.9930000000	41
71.0230000000	38
71.0530000000	40
71.0830000000	50
71.1130000000	40
71.1430000000	35
71.1730000000	37
71.2030000000	27
71.2330000000	36
71.2630000000	41
71.2930000000	40
71.3230000000	38
71.3530000000	40
71.3830000000	36
71.4130000000	46
71.4430000000	45
71.4730000000	40
71.5030000000	37
71.5330000000	54
71.5630000000	41
71.5930000000	38
71.6230000000	40
71.6530000000	51
71.6830000000	37
71.7130000000	43
71.7430000000	44
71.7730000000	35
71.8030000000	43
71.8330000000	41
71.8630000000	52
71.8930000000	47
71.9230000000	51
71.9530000000	48
71.9830000000	48
72.0130000000	57
72.0430000000	57
72.0730000000	52
72.1030000000	43
72.1330000000	58
72.1630000000	75
72.1930000000	67
72.2230000000	68
72.2530000000	81
72.2830000000	106
72.3130000000	115
72.3430000000	81
72.3730000000	100
72.4030000000	91
72.4330000000	75
72.4630000000	90
72.4930000000	84
72.5230000000	93
72.5530000000	75
72.5830000000	80
72.6130000000	55
72.6430000000	71
72.6730000000	64
72.7030000000	84
72.7330000000	68
72.7630000000	97
72.7930000000	112
72.8230000000	144
72.8530000000	161
72.8830000000	195
72.9130000000	153
72.9430000000	127
72.9730000000	136
73.0030000000	116
73.0330000000	113
73.0630000000	103
73.0930000000	97
73.1230000000	88
73.1530000000	73
73.1830000000	68
73.2130000000	63
73.2430000000	60
73.2730000000	56
73.3030000000	64
73.3330000000	48
73.3630000000	46
73.3930000000	50
73.4230000000	51
73.4530000000	39
73.4830000000	45
73.5130000000	48
73.5430000000	40
73.5730000000	50
73.6030000000	48
73.6330000000	36
73.6630000000	41
73.6930000000	46
73.7230000000	49
73.7530000000	52
73.7830000000	28
73.8130000000	37
73.8430000000	45
73.8730000000	43
73.9030000000	45
73.9330000000	37
73.9630000000	47
73.9930000000	42
74.0230000000	43
74.0530000000	38
74.0830000000	39
74.1130000000	44
74.1430000000	48
74.1730000000	33
74.2030000000	56
74.2330000000	41
74.2630000000	43
74.2930000000	44
74.3230000000	52
74.3530000000	35
74.3830000000	47
74.4130000000	40
74.4430000000	32
74.4730000000	51
74.5030000000	52
74.5330000000	39
74.5630000000	44
74.5930000000	40
74.6230000000	49
74.6530000000	57
74.6830000000	52
74.7130000000	47
74.7430000000	56
74.7730000000	69
74.8030000000	57
74.8330000000	48
74.8630000000	52
74.8930000000	54
74.9230000000	38
74.9530000000	43
74.9830000000	51
75.0130000000	38
75.0430000000	51
75.0730000000	42
75.1030000000	61
75.1330000000	53
75.1630000000	51
75.1930000000	51
75.2230000000	53
75.2530000000	52
75.2830000000	52
75.3130000000	47
75.3430000000	42
75.3730000000	47
75.4030000000	49
75.4330000000	48
75.4630000000	46
75.4930000000	35
75.5230000000	38
75.5530000000	55
75.5830000000	36
75.6130000000	36
75.6430000000	34
75.6730000000	43
75.7030000000	36
75.7330000000	40
75.7630000000	31
75.7930000000	41
75.8230000000	47
75.8530000000	42
75.8830000000	46
75.9130000000	40
75.9430000000	41
75.9730000000	45
76.0030000000	49
76.0330000000	56
76.0630000000	48
76.0930000000	33
76.1230000000	35
76.1530000000	50
76.1830000000	48
76.2130000000	28
76.2430000000	33
76.2730000000	40
76.3030000000	37
76.3330000000	35
76.3630000000	36
76.3930000000	51
76.4230000000	30
76.4530000000	41
76.4830000000	43
76.5130000000	41
76.5430000000	49
76.5730000000	43
76.6030000000	39
76.6330000000	41
76.6630000000	29
76.6930000000	44
76.7230000000	40
76.7530000000	43
76.7830000000	48
76.8130000000	33
76.8430000000	39
76.8730000000	43
76.9030000000	44
76.9330000000	33
76.9630000000	27
76.9930000000	52
77.0230000000	37
77.0530000000	36
77.0830000000	39
77.1130000000	42
77.1430000000	39
77.1730000000	40
77.2030000000	46
77.2330000000	37
77.2630000000	35
77.2930000000	44
77.3230000000	47
77.3530000000	43
77.3830000000	65
77.4130000000	39
77.4430000000	47
77.4730000000	59
77.5030000000	58
77.5330000000	72
77.5630000000	65
77.5930000000	78
77.6230000000	67
77.6530000000	63
77.6830000000	51
77.7130000000	69
77.7430000000	53
77.7730000000	53
77.8030000000	61
77.8330000000	47
77.8630000000	44
77.8930000000	40
77.9230000000	56
77.9530000000	47
77.9830000000	54
78.0130000000	48
78.0430000000	57
78.0730000000	51
78.1030000000	54
78.1330000000	38
78.1630000000	40
78.1930000000	41
78.2230000000	42
78.2530000000	52
78.2830000000	45
78.3130000000	46
78.3430000000	51
78.3730000000	42
78.4030000000	45
78.4330000000	38
78.4630000000	48
78.4930000000	52
78.5230000000	41
78.5530000000	42
78.5830000000	45
78.6130000000	57
78.6430000000	44
78.6730000000	59
78.7030000000	43
78.7330000000	56
78.7630000000	60
78.7930000000	59
78.8230000000	49
78.8530000000	53
78.8830000000	45
78.9130000000	50
78.9430000000	39
78.9730000000	39
79.0030000000	48
79.0330000000	44
79.0630000000	40
79.0930000000	44
79.1230000000	37
79.1530000000	43
79.1830000000	39
79.2130000000	37
79.2430000000	46
79.2730000000	43
79.3030000000	44
79.3330000000	38
79.3630000000	37
79.3930000000	35
79.4230000000	52
79.4530000000	32
79.4830000000	42
79.5130000000	40
79.5430000000	42
79.5730000000	43
79.6030000000	40
79.6330000000	32
79.6630000000	46
79.6930000000	42
79.7230000000	33
79.7530000000	38
79.7830000000	58
79.8130000000	37
79.8430000000	50
79.8730000000	51
79.9030000000	37
79.9330000000	52
79.9630000000	49
79.9930000000	37
80.0230000000	45
80.0530000000	51
80.0830000000	45
80.1130000000	36
80.1430000000	37
80.1730000000	39
80.2030000000	43
80.2330000000	43
80.2630000000	40
80.2930000000	38
80.3230000000	38
80.3530000000	42
80.3830000000	40
80.4130000000	45
80.4430000000	46
80.4730000000	49
80.5030000000	53
80.5330000000	47
80.5630000000	57
80.5930000000	55
80.6230000000	70
80.6530000000	55
80.6830000000	51
80.7130000000	49
80.7430000000	45
80.7730000000	55
80.8030000000	52
80.8330000000	45
80.8630000000	49
80.8930000000	44
80.9230000000	41
80.9530000000	38
80.9830000000	36
81.0130000000	39
81.0430000000	41
81.0730000000	35
81.1030000000	34
81.1330000000	36
81.1630000000	44
81.1930000000	42
81.2230000000	54
81.2530000000	38
81.2830000000	51
81.3130000000	49
81.3430000000	34
81.3730000000	56
81.4030000000	38
81.4330000000	37
81.4630000000	36
81.4930000000	36
81.5230000000	42
81.5530000000	39
81.5830000000	35
81.6130000000	40
81.6430000000	42
81.6730000000	41
81.7030000000	22
81.7330000000	43
81.7630000000	35
81.7930000000	28
81.8230000000	41
81.8530000000	26
81.8830000000	44
81.9130000000	32
81.9430000000	38
81.9730000000	31
82.0030000000	32
82.0330000000	35
82.0630000000	35
82.0930000000	37
82.1230000000	36
82.1530000000	41
82.1830000000	37
82.2130000000	33
82.2430000000	39
82.2730000000	36
82.3030000000	41
82.3330000000	34
82.3630000000	32
82.3930000000	34
82.4230000000	27
82.4530000000	31
82.4830000000	41
82.5130000000	47
82.5430000000	38
82.5730000000	24
82.6030000000	33
82.6330000000	40
82.6630000000	37
82.6930000000	38
82.7230000000	36
82.7530000000	35
82.7830000000	41
82.8130000000	43
82.8430000000	40
82.8730000000	41
82.9030000000	44
82.9330000000	44
82.9630000000	47
82.9930000000	45
83.0230000000	39
83.0530000000	39
83.0830000000	41
83.1130000000	44
83.1430000000	36
83.1730000000	52
83.2030000000	44
83.2330000000	44
83.2630000000	55
83.2930000000	60
83.3230000000	65
83.3530000000	53
83.3830000000	45
83.4130000000	59
83.4430000000	45
83.4730000000	42
83.5030000000	52
83.5330000000	46
83.5630000000	46
83.5930000000	39
83.6230000000	40
83.6530000000	36
83.6830000000	39
83.7130000000	45
83.7430000000	36
83.7730000000	38
83.8030000000	48
83.8330000000	37
83.8630000000	41
83.8930000000	42
83.9230000000	34
83.9530000000	39
83.9830000000	43
84.0130000000	31
84.0430000000	35
84.0730000000	39
84.1030000000	26
84.1330000000	41
84.1630000000	41
84.1930000000	28
84.2230000000	37
84.2530000000	38
84.2830000000	31
84.3130000000	39
84.3430000000	36
84.3730000000	36
84.4030000000	55
84.4330000000	32
84.4630000000	32
84.4930000000	30
84.5230000000	39
84.5530000000	45
84.5830000000	34
84.6130000000	38
84.6430000000	32
84.6730000000	38
84.7030000000	42
84.7330000000	43
84.7630000000	31
84.7930000000	32
84.8230000000	39
84.8530000000	40
84.8830000000	26
84.9130000000	40
84.9430000000	24
84.9730000000	32
85.0030000000	44
85.0330000000	39
85.0630000000	37
85.0930000000	33
85.1230000000	51
85.1530000000	42
85.1830000000	38
85.2130000000	36
85.2430000000	40
85.2730000000	45
85.3030000000	37
85.3330000000	32
85.3630000000	29
85.3930000000	37
85.4230000000	42
85.4530000000	31
85.4830000000	38
85.5130000000	37
85.5430000000	36
85.5730000000	46
85.6030000000	45
85.6330000000	40
85.6630000000	58
85.6930000000	50
85.7230000000	35
85.7530000000	46
85.7830000000	51
85.8130000000	47
85.8430000000	39
85.8730000000	38
85.9030000000	40
85.9330000000	58
85.9630000000	49
85.9930000000	48
86.0230000000	42
86.0530000000	40
86.0830000000	40
86.1130000000	43
86.1430000000	50
86.1730000000	40
86.2030000000	27
86.2330000000	35
86.2630000000	41
86.2930000000	38
86.3230000000	40
86.3530000000	31
86.3830000000	45
86.4130000000	54
86.4430000000	42
86.4730000000	40
86.5030000000	45
86.5330000000	47
86.5630000000	29
86.5930000000	44
86.6230000000	48
86.6530000000	41
86.6830000000	43
86.7130000000	48
86.7430000000	48
86.7730000000	45
86.8030000000	40
86.8330000000	43
86.8630000000	51
86.8930000000	45
86.9230000000	39
86.9530000000	44
86.9830000000	51
87.0130000000	46
87.0430000000	40
87.0730000000	32
87.1030000000	36
87.1330000000	46
87.1630000000	39
87.1930000000	39
87.2230000000	40
87.2530000000	39
87.2830000000	42
87.3130000000	38
87.3430000000	47
87.3730000000	30
87.4030000000	33
87.4330000000	46
87.4630000000	38
87.4930000000	40
87.5230000000	37
87.5530000000	48
87.5830000000	39
87.6130000000	51
87.6430000000	47
87.6730000000	39
87.7030000000	35
87.7330000000	36
87.7630000000	34
87.7930000000	30
87.8230000000	27
87.8530000000	44
87.8830000000	42
87.9130000000	39
87.9430000000	35
87.9730000000	36
88.0030000000	46
88.0330000000	36
88.0630000000	34
88.0930000000	46
88.1230000000	46
88.1530000000	49
88.1830000000	51
88.2130000000	44
88.2430000000	44
88.2730000000	49
88.3030000000	58
88.3330000000	37
88.3630000000	39
88.3930000000	44
88.4230000000	46
88.4530000000	52
88.4830000000	42
88.5130000000	41
88.5430000000	50
88.5730000000	47
88.6030000000	39
88.6330000000	44
88.6630000000	48
88.6930000000	37
88.7230000000	39
88.7530000000	35
88.7830000000	41
88.8130000000	42
88.8430000000	37
88.8730000000	47
88.9030000000	46
88.9330000000	42
88.9630000000	34
88.9930000000	43
89.0230000000	30
89.0530000000	37
89.0830000000	41
89.1130000000	46
89.1430000000	49
89.1730000000	32
89.2030000000	45
89.2330000000	40
89.2630000000	45
89.2930000000	39
89.3230000000	41
89.3530000000	35
89.3830000000	48
89.4130000000	63
89.4430000000	53
89.4730000000	56
89.5030000000	54
89.5330000000	57
89.5630000000	60
89.5930000000	46
89.6230000000	42
89.6530000000	43
89.6830000000	52
89.7130000000	53
89.7430000000	45
89.7730000000	40
89.8030000000	34
89.8330000000	41
89.8630000000	46
89.8930000000	31
89.9230000000	41
89.9530000000	44
89.9830000000	41
90.0130000000	39
90.0430000000	53
90.0730000000	39
90.1030000000	34
90.1330000000	40
90.1630000000	30
90.1930000000	30
90.2230000000	45
90.2530000000	35
90.2830000000	45
90.3130000000	39
90.3430000000	40
90.3730000000	36
90.4030000000	48
90.4330000000	43
90.4630000000	43
90.4930000000	37
90.5230000000	31
90.5530000000	32
90.5830000000	34
90.6130000000	36
90.6430000000	38
90.6730000000	49
90.7030000000	34
90.7330000000	49
90.7630000000	36
90.7930000000	28
90.8230000000	43
90.8530000000	41
90.8830000000	34
90.9130000000	35
90.9430000000	35
90.9730000000	41
91.0030000000	38
91.0330000000	31
91.0630000000	35
91.0930000000	36
91.1230000000	34
91.1530000000	29
91.1830000000	35
91.2130000000	46
91.2430000000	35
91.2730000000	32
91.3030000000	41
91.3330000000	45
91.3630000000	38
91.3930000000	42
91.4230000000	42
91.4530000000	39
91.4830000000	41
91.5130000000	38
91.5430000000	40
91.5730000000	43
91.6030000000	37
91.6330000000	31
91.6630000000	33
91.6930000000	37
91.7230000000	34
91.7530000000	33
91.7830000000	35
91.8130000000	34
91.8430000000	37
91.8730000000	39
91.9030000000	48
91.9330000000	37
91.9630000000	39
91.9930000000	40
92.0230000000	40
92.0530000000	32
92.0830000000	33
92.1130000000	41
92.1430000000	45
92.1730000000	38
92.2030000000	42
92.2330000000	39
92.2630000000	34
92.2930000000	40
92.3230000000	32
92.3530000000	34
92.3830000000	37
92.4130000000	37
92.4430000000	37
92.4730000000	46
92.5030000000	41
92.5330000000	36
92.5630000000	37
92.5930000000	42
92.6230000000	48
92.6530000000	38
92.6830000000	42
92.7130000000	43
92.7430000000	29
92.7730000000	31
92.8030000000	39
92.8330000000	41
92.8630000000	35
92.8930000000	41
92.9230000000	49
92.9530000000	39
92.9830000000	26
93.0130000000	27
93.0430000000	41
93.0730000000	35
93.1030000000	27
93.1330000000	29
93.1630000000	28
93.1930000000	28
93.2230000000	39
93.2530000000	40
93.2830000000	31
93.3130000000	34
93.3430000000	35
93.3730000000	33
93.4030000000	34
93.4330000000	37
93.4630000000	40
93.4930000000	40
93.5230000000	40
93.5530000000	38
93.5830000000	42
93.6130000000	42
93.6430000000	38
93.6730000000	41
93.7030000000	47
93.7330000000	39
93.7630000000	45
93.7930000000	34
93.8230000000	41
93.8530000000	54
93.8830000000	40
93.9130000000	31
93.9430000000	35
93.9730000000	46
94.0030000000	39
94.0330000000	47
94.0630000000	45
94.0930000000	39
94.1230000000	29
94.1530000000	44
94.1830000000	42
94.2130000000	42
94.2430000000	28
94.2730000000	44
94.3030000000	31
94.3330000000	26
94.3630000000	27
94.3930000000	28
94.4230000000	36
94.4530000000	33
94.4830000000	39
94.5130000000	45
94.5430000000	38
94.5730000000	35
94.6030000000	39
94.6330000000	32
94.6630000000	31
94.6930000000	37
94.7230000000	37
94.7530000000	34
94.7830000000	35
94.8130000000	40
94.8430000000	34
94.8730000000	39
94.9030000000	38
94.9330000000	36
94.9630000000	27
94.9930000000	24
95.0230000000	41
95.0530000000	36
95.0830000000	36
95.1130000000	39
95.1430000000	37
95.1730000000	27
95.2030000000	46
95.2330000000	36
95.2630000000	36
95.2930000000	33
95.3230000000	51
95.3530000000	36
95.3830000000	41
95.4130000000	45
95.4430000000	42
95.4730000000	37
95.5030000000	37
95.5330000000	49
95.5630000000	39
95.5930000000	38
95.6230000000	44
95.6530000000	41
95.6830000000	27
95.7130000000	43
95.7430000000	37
95.7730000000	35
95.8030000000	34
95.8330000000	34
95.8630000000	33
95.8930000000	33
95.9230000000	32
95.9530000000	32
95.9830000000	39
96.0130000000	41
96.0430000000	37
96.0730000000	31
96.1030000000	34
96.1330000000	48
96.1630000000	45
96.1930000000	37
96.2230000000	35
96.2530000000	32
96.2830000000	38
96.3130000000	27
96.3430000000	40
96.3730000000	47
96.4030000000	25
96.4330000000	53
96.4630000000	41
96.4930000000	51
96.5230000000	44
96.5530000000	27
96.5830000000	38
96.6130000000	33
96.6430000000	29
96.6730000000	40
96.7030000000	51
96.7330000000	43
96.7630000000	34
96.7930000000	30
96.8230000000	42
96.8530000000	51
96.8830000000	47
96.9130000000	44
96.9430000000	36
96.9730000000	29
97.0030000000	36
97.0330000000	38
97.0630000000	40
97.0930000000	36
97.1230000000	34
97.1530000000	42
97.1830000000	37
97.2130000000	38
97.2430000000	34
97.2730000000	39
97.3030000000	39
97.3330000000	30
97.3630000000	35
97.3930000000	46
97.4230000000	46
97.4530000000	43
97.4830000000	47
97.5130000000	38
97.5430000000	30
97.5730000000	31
97.6030000000	39
97.6330000000	29
97.6630000000	37
97.6930000000	35
97.7230000000	35
97.7530000000	36
97.7830000000	34
97.8130000000	30
97.8430000000	34
97.8730000000	48
97.9030000000	41
97.9330000000	40
97.9630000000	26
97.9930000000	32
98.0230000000	35
98.0530000000	36
98.0830000000	36
98.1130000000	30
98.1430000000	33
98.1730000000	35
98.2030000000	34
98.2330000000	41
98.2630000000	28
98.2930000000	41
98.3230000000	40
98.3530000000	25
98.3830000000	49
98.4130000000	48
98.4430000000	36
98.4730000000	38
98.5030000000	42
98.5330000000	45
98.5630000000	44
98.5930000000	39
98.6230000000	28
98.6530000000	35
98.6830000000	45
98.7130000000	46
98.7430000000	39
98.7730000000	40
98.8030000000	33
98.8330000000	18
98.8630000000	28
98.8930000000	38
98.9230000000	44
98.9530000000	42
98.9830000000	44
99.0130000000	36
99.0430000000	32
99.0730000000	41
99.1030000000	37
99.1330000000	28
99.1630000000	38
99.1930000000	35
99.2230000000	29
99.2530000000	27
99.2830000000	45
99.3130000000	34
99.3430000000	46
99.3730000000	33
99.4030000000	41
99.4330000000	45
99.4630000000	27
99.4930000000	46
99.5230000000	33
99.5530000000	36
99.5830000000	41
99.6130000000	42
99.6430000000	35
99.6730000000	33
99.7030000000	34
99.7330000000	30
99.7630000000	34
99.7930000000	32
99.8230000000	27
99.8530000000	34
99.8830000000	29
99.9130000000	32
99.9430000000	26
99.9730000000	30
100.0030000000	27
100.0330000000	33
100.0630000000	37
100.0930000000	35
100.1230000000	36
100.1530000000	32
100.1830000000	34
100.2130000000	42
100.2430000000	37
100.2730000000	33
100.3030000000	36
100.3330000000	31
100.3630000000	31
100.3930000000	37
100.4230000000	36
100.4530000000	50
100.4830000000	42
100.5130000000	44
100.5430000000	43
100.5730000000	39
100.6030000000	33
100.6330000000	36
100.6630000000	38
100.6930000000	48
100.7230000000	34
100.7530000000	22
100.7830000000	36
100.8130000000	30
100.8430000000	27
100.8730000000	32
100.9030000000	31
100.9330000000	37
100.9630000000	37
100.9930000000	32
101.0230000000	38
101.0530000000	30
101.0830000000	31
101.1130000000	38
101.1430000000	36
101.1730000000	44
101.2030000000	34
101.2330000000	40
101.2630000000	40
101.2930000000	35
101.3230000000	36
101.3530000000	31
101.3830000000	32
101.4130000000	29
101.4430000000	30
101.4730000000	32
101.5030000000	41
101.5330000000	41
101.5630000000	39
101.5930000000	34
101.6230000000	31
101.6530000000	39
101.6830000000	43
101.7130000000	38
101.7430000000	43
101.7730000000	37
101.8030000000	29
101.8330000000	35
101.8630000000	34
101.8930000000	39
101.9230000000	44
101.9530000000	33
101.9830000000	26
102.0130000000	41
102.0430000000	48
102.0730000000	46
102.1030000000	43
102.1330000000	28
102.1630000000	39
102.1930000000	38
102.2230000000	31
102.2530000000	39
102.2830000000	44
102.3130000000	32
102.3430000000	50
102.3730000000	30
102.4030000000	36
102.4330000000	35
102.4630000000	40
102.4930000000	41
102.5230000000	30
102.5530000000	47
102.5830000000	38
102.6130000000	35
102.6430000000	31
102.6730000000	37
102.7030000000	40
102.7330000000	33
102.7630000000	35
102.7930000000	30
102.8230000000	41
102.8530000000	34
102.8830000000	30
102.9130000000	47
102.9430000000	39
102.9730000000	39
103.0030000000	38
103.0330000000	40
103.0630000000	42
103.0930000000	53
103.1230000000	41
103.1530000000	32
103.1830000000	40
103.2130000000	40
103.2430000000	36
103.2730000000	32
103.3030000000	29
103.3330000000	34
103.3630000000	34
103.3930000000	25
103.4230000000	42
103.4530000000	38
103.4830000000	33
103.5130000000	36
103.5430000000	36
103.5730000000	35
103.6030000000	46
103.6330000000	34
103.6630000000	39
103.6930000000	45
103.7230000000	38
103.7530000000	38
103.7830000000	40
103.8130000000	29
103.8430000000	30
103.8730000000	38
103.9030000000	34
103.9330000000	35
103.9630000000	38
103.9930000000	33
104.0230000000	36
104.0530000000	43
104.0830000000	31
104.1130000000	24
104.1430000000	26
104.1730000000	40
104.2030000000	31
104.2330000000	35
104.2630000000	27
104.2930000000	38
104.3230000000	49
104.3530000000	44
104.3830000000	40
104.4130000000	41
104.4430000000	47
104.4730000000	55
104.5030000000	39
104.5330000000	39
104.5630000000	49
104.5930000000	49
104.6230000000	37
104.6530000000	39
104.6830000000	34
104.7130000000	37
104.7430000000	35
104.7730000000	40
104.8030000000	44
104.8330000000	38
104.8630000000	39
104.8930000000	43
104.9230000000	42
104.9530000000	46
104.9830000000	48
105.0130000000	43
105.0430000000	36
105.0730000000	36
105.1030000000	41
105.1330000000	33
105.1630000000	33
105.1930000000	46
105.2230000000	40
105.2530000000	28
105.2830000000	37
105.3130000000	31
105.3430000000	31
105.3730000000	41
105.4030000000	45
105.4330000000	36
105.4630000000	30
105.4930000000	34
105.5230000000	33
105.5530000000	39
105.5830000000	39
105.6130000000	43
105.6430000000	46
105.6730000000	45
105.7030000000	38
105.7330000000	45
105.7630000000	37
105.7930000000	37
105.8230000000	27
105.8530000000	34
105.8830000000	31
105.9130000000	37
105.9430000000	43
105.9730000000	41
106.0030000000	36
106.0330000000	37
106.0630000000	39
106.0930000000	33
106.1230000000	37
106.1530000000	22
106.1830000000	39
106.2130000000	35
106.2430000000	26
106.2730000000	31
106.3030000000	42
106.3330000000	38
106.3630000000	37
106.3930000000	35
106.4230000000	30
106.4530000000	33
106.4830000000	59
106.5130000000	28
106.5430000000	43
106.5730000000	44
106.6030000000	36
106.6330000000	44
106.6630000000	50
106.6930000000	48
106.7230000000	48
106.7530000000	43
106.7830000000	42
106.8130000000	42
106.8430000000	42
106.8730000000	37
106.9030000000	37
106.9330000000	33
106.9630000000	39
106.9930000000	35
107.0230000000	40
107.0530000000	41
107.0830000000	37
107.1130000000	35
107.1430000000	38
107.1730000000	36
107.2030000000	36
107.2330000000	37
107.2630000000	31
107.2930000000	41
107.3230000000	32
107.3530000000	33
107.3830000000	43
107.4130000000	42
107.4430000000	36
107.4730000000	38
107.5030000000	46
107.5330000000	32
107.5630000000	35
107.5930000000	35
107.6230000000	36
107.6530000000	43
107.6830000000	48
107.7130000000	53
107.7430000000	44
107.7730000000	45
107.8030000000	53
107.8330000000	48
107.8630000000	37
107.8930000000	39
107.9230000000	38
107.9530000000	32
107.9830000000	44
108.0130000000	43
108.0430000000	40
108.0730000000	42
108.1030000000	37
108.1330000000	55
108.1630000000	49
108.1930000000	38
108.2230000000	41
108.2530000000	36
108.2830000000	38
108.3130000000	47
108.3430000000	38
108.3730000000	35
108.4030000000	29
108.4330000000	36
108.4630000000	30
108.4930000000	41
108.5230000000	36
108.5530000000	41
108.5830000000	37
108.6130000000	33
108.6430000000	43
108.6730000000	36
108.7030000000	36
108.7330000000	29
108.7630000000	24
108.7930000000	28
108.8230000000	42
108.8530000000	34
108.8830000000	29
108.9130000000	33
108.9430000000	30
108.9730000000	38
109.0030000000	34
109.0330000000	33
109.0630000000	43
109.0930000000	37
109.1230000000	39
109.1530000000	30
109.1830000000	36
109.2130000000	36
109.2430000000	27
109.2730000000	36
109.3030000000	35
109.3330000000	42
109.3630000000	42
109.3930000000	34
109.4230000000	51
109.4530000000	47
109.4830000000	31
109.5130000000	37
109.5430000000	49
109.5730000000	35
109.6030000000	42
109.6330000000	45
109.6630000000	32
109.6930000000	41
109.7230000000	50
109.7530000000	34
109.7830000000	39
109.8130000000	47
109.8430000000	30
109.8730000000	40
109.9030000000	40
109.9330000000	41
109.9630000000	33
109.9930000000	41
110.0230000000	42
110.0530000000	41
110.0830000000	26
110.1130000000	33
110.1430000000	42
110.1730000000	50
110.2030000000	39
110.2330000000	37
110.2630000000	36
110.2930000000	30
110.3230000000	37
110.3530000000	37
110.3830000000	37
110.4130000000	46
110.4430000000	36
110.4730000000	35
110.5030000000	32
110.5330000000	34
110.5630000000	42
110.5930000000	43
110.6230000000	45
110.6530000000	48
110.6830000000	31
110.7130000000	41
110.7430000000	43
110.7730000000	38
110.8030000000	47
110.8330000000	42
110.8630000000	41
110.8930000000	39
110.9230000000	42
110.9530000000	53
110.9830000000	60
111.0130000000	44
111.0430000000	37
111.0730000000	39
111.1030000000	38
111.1330000000	45
111.1630000000	49
111.1930000000	40
111.2230000000	32
111.2530000000	42
111.2830000000	45
111.3130000000	40
111.3430000000	33
111.3730000000	49
111.4030000000	44
111.4330000000	49
111.4630000000	45
111.4930000000	36
111.5230000000	49
111.5530000000	45
111.5830000000	44
111.6130000000	44
111.6430000000	39
111.6730000000	45
111.7030000000	43
111.7330000000	52
111.7630000000	35
111.7930000000	49
111.8230000000	52
111.8530000000	40
111.8830000000	39
111.9130000000	40
111.9430000000	45
111.9730000000	35
112.0030000000	34
112.0330000000	36
112.0630000000	36
112.0930000000	41
112.1230000000	45
112.1530000000	39
112.1830000000	41
112.2130000000	35
112.2430000000	42
112.2730000000	42
112.3030000000	26
112.3330000000	47
112.3630000000	33
112.3930000000	56
112.4230000000	34
112.4530000000	25
112.4830000000	45
112.5130000000	49
112.5430000000	60
112.5730000000	56
112.6030000000	37
112.6330000000	43
112.6630000000	45
112.6930000000	40
112.7230000000	44
112.7530000000	49
112.7830000000	45
112.8130000000	43
112.8430000000	49
112.8730000000	47
112.9030000000	45
112.9330000000	49
112.9630000000	64
112.9930000000	57
113.0230000000	81
113.0530000000	70
113.0830000000	73
113.1130000000	54
113.1430000000	45
113.1730000000	42
113.2030000000	42
113.2330000000	48
113.2630000000	49
113.2930000000	55
113.3230000000	48
113.3530000000	53
113.3830000000	57
113.4130000000	50
113.4430000000	52
113.4730000000	62
113.5030000000	47
113.5330000000	51
113.5630000000	54
113.5930000000	38
113.6230000000	47
113.6530000000	49
113.6830000000	45
113.7130000000	42
113.7430000000	42
113.7730000000	41
113.8030000000	39
113.8330000000	37
113.8630000000	43
113.8930000000	50
113.9230000000	46
113.9530000000	42
113.9830000000	33
114.0130000000	43
114.0430000000	43
114.0730000000	48
114.1030000000	40
114.1330000000	44
114.1630000000	26
114.1930000000	41
114.2230000000	47
114.2530000000	41
114.2830000000	37
114.3130000000	36
114.3430000000	34
114.3730000000	37
114.4030000000	40
114.4330000000	48
114.4630000000	1
114.4930000000	1
114.5230000000	1
114.5530000000	1
114.5830000000	1
