0.3130000000	1
0.3430000000	1
0.3730000000	1
0.4030000000	1
0.4330000000	1
0.4630000000	1
0.4930000000	1
0.5230000000	1
0.5530000000	2
0.5830000000	1
0.6130000000	1
0.6430000000	1
0.6730000000	1
0.7030000000	1
0.7330000000	1
0.7630000000	1
0.7930000000	1
0.8230000000	1
0.8530000000	1
0.8830000000	1
0.9130000000	1
0.9430000000	1
0.9730000000	1
1.0030000000	1
1.0330000000	1
1.0630000000	2
1.0930000000	1
1.1230000000	1
1.1530000000	1
1.1830000000	1
1.2130000000	1
1.2430000000	1
1.2730000000	1
1.3030000000	2
1.3330000000	1
1.3630000000	1
1.3930000000	1
1.4230000000	1
1.4530000000	1
1.4830000000	2
1.5130000000	1
1.5430000000	1
1.5730000000	1
1.6030000000	1
1.6330000000	1
1.6630000000	1
1.6930000000	1
1.7230000000	1
1.7530000000	2
1.7830000000	1
1.8130000000	1
1.8430000000	1
1.8730000000	1
1.9030000000	1
1.9330000000	1
1.9630000000	2
1.9930000000	1
2.0230000000	2
2.0530000000	1
2.0830000000	2
2.1130000000	1
2.1430000000	1
2.1730000000	2
2.2030000000	2
2.2330000000	1
2.2630000000	1
2.2930000000	1
2.3230000000	1
2.3530000000	1
2.3830000000	1
2.4130000000	1
2.4430000000	2
2.4730000000	2
2.5030000000	1
2.5330000000	2
2.5630000000	2
2.5930000000	1
2.6230000000	1
2.6530000000	2
2.6830000000	2
2.7130000000	1
2.7430000000	3
2.7730000000	1
2.8030000000	1
2.8330000000	1
2.8630000000	1
2.8930000000	2
2.9230000000	2
2.9530000000	1
2.9830000000	1
3.0130000000	1
3.0430000000	2
3.0730000000	3
3.1030000000	1
3.1330000000	2
3.1630000000	1
3.1930000000	1
3.2230000000	1
3.2530000000	1
3.2830000000	1
3.3130000000	3
3.3430000000	1
3.3730000000	2
3.4030000000	3
3.4330000000	1
3.4630000000	2
3.4930000000	3
3.5230000000	1
3.5530000000	2
3.5830000000	1
3.6130000000	2
3.6430000000	2
3.6730000000	1
3.7030000000	1
3.7330000000	1
3.7630000000	1
3.7930000000	1
3.8230000000	2
3.8530000000	2
3.8830000000	2
3.9130000000	1
3.9430000000	2
3.9730000000	4
4.0030000000	2
4.0330000000	3
4.0630000000	5
4.0930000000	3
4.1230000000	3
4.1530000000	3
4.1830000000	4
4.2130000000	2
4.2430000000	3
4.2730000000	3
4.3030000000	2
4.3330000000	1
4.3630000000	2
4.3930000000	5
4.4230000000	8
4.4530000000	15
4.4830000000	15
4.5130000000	18
4.5430000000	36
4.5730000000	52
4.6030000000	60
4.6330000000	99
4.6630000000	119
4.6930000000	126
4.7230000000	101
4.7530000000	140
4.7830000000	130
4.8130000000	134
4.8430000000	120
4.8730000000	137
4.9030000000	131
4.9330000000	133
4.9630000000	141
4.9930000000	145
5.0230000000	141
5.0530000000	139
5.0830000000	142
5.1130000000	146
5.1430000000	132
5.1730000000	149
5.2030000000	129
5.2330000000	116
5.2630000000	141
5.2930000000	148
5.3230000000	152
5.3530000000	137
5.3830000000	169
5.4130000000	122
5.4430000000	157
5.4730000000	143
5.5030000000	130
5.5330000000	158
5.5630000000	163
5.5930000000	144
5.6230000000	148
5.6530000000	143
5.6830000000	153
5.7130000000	135
5.7430000000	153
5.7730000000	152
5.8030000000	147
5.8330000000	136
5.8630000000	144
5.8930000000	138
5.9230000000	145
5.9530000000	134
5.9830000000	136
6.0130000000	153
6.0430000000	156
6.0730000000	169
6.1030000000	145
6.1330000000	153
6.1630000000	154
6.1930000000	134
6.2230000000	160
6.2530000000	150
6.2830000000	151
6.3130000000	140
6.3430000000	128
6.3730000000	159
6.4030000000	157
6.4330000000	169
6.4630000000	137
6.4930000000	139
6.5230000000	151
6.5530000000	150
6.5830000000	148
6.6130000000	141
6.6430000000	157
6.6730000000	140
6.7030000000	151
6.7330000000	156
6.7630000000	144
6.7930000000	130
6.8230000000	152
6.8530000000	146
6.8830000000	153
6.9130000000	144
6.9430000000	157
6.9730000000	152
7.0030000000	150
7.0330000000	156
7.0630000000	156
7.0930000000	144
7.1230000000	136
7.1530000000	161
7.1830000000	141
7.2130000000	126
7.2430000000	154
7.2730000000	160
7.3030000000	152
7.3330000000	141
7.3630000000	154
7.3930000000	141
7.4230000000	137
7.4530000000	155
7.4830000000	182
7.5130000000	159
7.5430000000	148
7.5730000000	144
7.6030000000	150
7.6330000000	164
7.6630000000	158
7.6930000000	151
7.7230000000	135
7.7530000000	141
7.7830000000	152
7.8130000000	146
7.8430000000	153
7.8730000000	144
7.9030000000	140
7.9330000000	151
7.9630000000	138
7.9930000000	132
8.0230000000	150
8.0530000000	136
8.0830000000	131
8.1130000000	130
8.1430000000	154
8.1730000000	148
8.2030000000	160
8.2330000000	160
8.2630000000	151
8.2930000000	151
8.3230000000	158
8.3530000000	137
8.3830000000	150
8.4130000000	142
8.4430000000	143
8.4730000000	143
8.5030000000	131
8.5330000000	169
8.5630000000	143
8.5930000000	144
8.6230000000	151
8.6530000000	136
8.6830000000	167
8.7130000000	159
8.7430000000	151
8.7730000000	161
8.8030000000	147
8.8330000000	131
8.8630000000	148
8.8930000000	134
8.9230000000	148
8.9530000000	152
8.9830000000	172
9.0130000000	134
9.0430000000	138
9.0730000000	135
9.1030000000	146
9.1330000000	168
9.1630000000	173
9.1930000000	129
9.2230000000	156
9.2530000000	176
9.2830000000	136
9.3130000000	148
9.3430000000	154
9.3730000000	132
9.4030000000	140
9.4330000000	149
9.4630000000	162
9.4930000000	164
9.5230000000	150
9.5530000000	147
9.5830000000	135
9.6130000000	158
9.6430000000	143
9.6730000000	139
9.7030000000	133
9.7330000000	153
9.7630000000	145
9.7930000000	156
9.8230000000	145
9.8530000000	127
9.8830000000	134
9.9130000000	137
9.9430000000	153
9.9730000000	146
10.0030000000	143
10.0330000000	147
10.0630000000	151
10.0930000000	154
10.1230000000	144
10.1530000000	151
10.1830000000	133
10.2130000000	138
10.2430000000	162
10.2730000000	158
10.3030000000	148
10.3330000000	142
10.3630000000	126
10.3930000000	152
10.4230000000	141
10.4530000000	164
10.4830000000	137
10.5130000000	156
10.5430000000	152
10.5730000000	163
10.6030000000	144
10.6330000000	172
10.6630000000	114
10.6930000000	127
10.7230000000	142
10.7530000000	156
10.7830000000	135
10.8130000000	162
10.8430000000	148
10.8730000000	144
10.9030000000	131
10.9330000000	162
10.9630000000	158
10.9930000000	137
11.0230000000	163
11.0530000000	152
11.0830000000	155
11.1130000000	137
11.1430000000	155
11.1730000000	140
11.2030000000	155
11.2330000000	133
11.2630000000	145
11.2930000000	136
11.3230000000	158
11.3530000000	125
11.3830000000	140
11.4130000000	134
11.4430000000	151
11.4730000000	142
11.5030000000	145
11.5330000000	139
11.5630000000	154
11.5930000000	140
11.6230000000	154
11.6530000000	139
11.6830000000	164
11.7130000000	139
11.7430000000	137
11.7730000000	129
11.8030000000	149
11.8330000000	143
11.8630000000	121
11.8930000000	142
11.9230000000	150
11.9530000000	155
11.9830000000	138
12.0130000000	125
12.0430000000	149
12.0730000000	145
12.1030000000	147
12.1330000000	147
12.1630000000	140
12.1930000000	135
12.2230000000	142
12.2530000000	142
12.2830000000	156
12.3130000000	146
12.3430000000	168
12.3730000000	159
12.4030000000	149
12.4330000000	152
12.4630000000	136
12.4930000000	139
12.5230000000	163
12.5530000000	150
12.5830000000	132
12.6130000000	135
12.6430000000	145
12.6730000000	146
12.7030000000	150
12.7330000000	156
12.7630000000	157
12.7930000000	138
12.8230000000	135
12.8530000000	142
12.8830000000	138
12.9130000000	160
12.9430000000	162
12.9730000000	140
13.0030000000	161
13.0330000000	161
13.0630000000	140
13.0930000000	144
13.1230000000	143
13.1530000000	143
13.1830000000	127
13.2130000000	144
13.2430000000	132
13.2730000000	133
13.3030000000	136
13.3330000000	172
13.3630000000	133
13.3930000000	133
13.4230000000	147
13.4530000000	128
13.4830000000	129
13.5130000000	162
13.5430000000	155
13.5730000000	154
13.6030000000	130
13.6330000000	126
13.6630000000	149
13.6930000000	130
13.7230000000	141
13.7530000000	164
13.7830000000	131
13.8130000000	148
13.8430000000	131
13.8730000000	153
13.9030000000	140
13.9330000000	150
13.9630000000	141
13.9930000000	160
14.0230000000	142
14.0530000000	152
14.0830000000	139
14.1130000000	137
14.1430000000	143
14.1730000000	147
14.2030000000	159
14.2330000000	130
14.2630000000	133
14.2930000000	154
14.3230000000	136
14.3530000000	143
14.3830000000	144
14.4130000000	138
14.4430000000	179
14.4730000000	156
14.5030000000	122
14.5330000000	133
14.5630000000	148
14.5930000000	143
14.6230000000	154
14.6530000000	156
14.6830000000	160
14.7130000000	146
14.7430000000	161
14.7730000000	155
14.8030000000	139
14.8330000000	124
14.8630000000	139
14.8930000000	154
14.9230000000	139
14.9530000000	155
14.9830000000	139
15.0130000000	141
15.0430000000	160
15.0730000000	157
15.1030000000	154
15.1330000000	159
15.1630000000	156
15.1930000000	165
15.2230000000	155
15.2530000000	177
15.2830000000	152
15.3130000000	170
15.3430000000	135
15.3730000000	148
15.4030000000	165
15.4330000000	147
15.4630000000	156
15.4930000000	150
15.5230000000	130
15.5530000000	132
15.5830000000	151
15.6130000000	157
15.6430000000	134
15.6730000000	149
15.7030000000	153
15.7330000000	146
15.7630000000	154
15.7930000000	160
15.8230000000	160
15.8530000000	155
15.8830000000	178
15.9130000000	152
15.9430000000	137
15.9730000000	145
16.0030000000	132
16.0330000000	138
16.0630000000	149
16.0930000000	145
16.1230000000	135
16.1530000000	158
16.1830000000	169
16.2130000000	150
16.2430000000	157
16.2730000000	137
16.3030000000	117
16.3330000000	133
16.3630000000	178
16.3930000000	142
16.4230000000	151
16.4530000000	120
16.4830000000	133
16.5130000000	138
16.5430000000	129
16.5730000000	150
16.6030000000	129
16.6330000000	134
16.6630000000	136
16.6930000000	127
16.7230000000	141
16.7530000000	125
16.7830000000	146
16.8130000000	147
16.8430000000	161
16.8730000000	141
16.9030000000	128
16.9330000000	132
16.9630000000	150
16.9930000000	144
17.0230000000	162
17.0530000000	147
17.0830000000	138
17.1130000000	165
17.1430000000	138
17.1730000000	141
17.2030000000	145
17.2330000000	151
17.2630000000	144
17.2930000000	119
17.3230000000	147
17.3530000000	133
17.3830000000	148
17.4130000000	148
17.4430000000	145
17.4730000000	164
17.5030000000	163
17.5330000000	160
17.5630000000	136
17.5930000000	135
17.6230000000	150
17.6530000000	140
17.6830000000	151
17.7130000000	147
17.7430000000	129
17.7730000000	135
17.8030000000	136
17.8330000000	131
17.8630000000	138
17.8930000000	153
17.9230000000	155
17.9530000000	149
17.9830000000	137
18.0130000000	134
18.0430000000	140
18.0730000000	135
18.1030000000	132
18.1330000000	123
18.1630000000	145
18.1930000000	160
18.2230000000	130
18.2530000000	134
18.2830000000	134
18.3130000000	151
18.3430000000	122
18.3730000000	118
18.4030000000	134
18.4330000000	139
18.4630000000	123
18.4930000000	135
18.5230000000	130
18.5530000000	146
18.5830000000	133
18.6130000000	160
18.6430000000	157
18.6730000000	149
18.7030000000	142
18.7330000000	153
18.7630000000	170
18.7930000000	123
18.8230000000	157
18.8530000000	155
18.8830000000	136
18.9130000000	148
18.9430000000	142
18.9730000000	150
19.0030000000	147
19.0330000000	138
19.0630000000	153
19.0930000000	140
19.1230000000	159
19.1530000000	140
19.1830000000	142
19.2130000000	146
19.2430000000	138
19.2730000000	156
19.3030000000	160
19.3330000000	137
19.3630000000	145
19.3930000000	185
19.4230000000	186
19.4530000000	226
19.4830000000	264
19.5130000000	297
19.5430000000	323
19.5730000000	360
19.6030000000	374
19.6330000000	339
19.6630000000	274
19.6930000000	222
19.7230000000	216
19.7530000000	196
19.7830000000	172
19.8130000000	154
19.8430000000	151
19.8730000000	155
19.9030000000	138
19.9330000000	171
19.9630000000	143
19.9930000000	147
20.0230000000	158
20.0530000000	142
20.0830000000	158
20.1130000000	164
20.1430000000	133
20.1730000000	165
20.2030000000	151
20.2330000000	142
20.2630000000	162
20.2930000000	158
20.3230000000	158
20.3530000000	146
20.3830000000	118
20.4130000000	178
20.4430000000	143
20.4730000000	138
20.5030000000	134
20.5330000000	144
20.5630000000	144
20.5930000000	127
20.6230000000	158
20.6530000000	188
20.6830000000	160
20.7130000000	167
20.7430000000	147
20.7730000000	158
20.8030000000	157
20.8330000000	170
20.8630000000	150
20.8930000000	156
20.9230000000	137
20.9530000000	188
20.9830000000	161
21.0130000000	173
21.0430000000	158
21.0730000000	160
21.1030000000	167
21.1330000000	150
21.1630000000	150
21.1930000000	155
21.2230000000	141
21.2530000000	154
21.2830000000	154
21.3130000000	160
21.3430000000	143
21.3730000000	146
21.4030000000	154
21.4330000000	143
21.4630000000	164
21.4930000000	141
21.5230000000	150
21.5530000000	151
21.5830000000	151
21.6130000000	152
21.6430000000	162
21.6730000000	163
21.7030000000	143
21.7330000000	166
21.7630000000	156
21.7930000000	154
21.8230000000	168
21.8530000000	154
21.8830000000	154
21.9130000000	151
21.9430000000	154
21.9730000000	158
22.0030000000	181
22.0330000000	161
22.0630000000	161
22.0930000000	170
22.1230000000	174
22.1530000000	152
22.1830000000	155
22.2130000000	178
22.2430000000	151
22.2730000000	138
22.3030000000	168
22.3330000000	158
22.3630000000	164
22.3930000000	185
22.4230000000	171
22.4530000000	159
22.4830000000	174
22.5130000000	187
22.5430000000	181
22.5730000000	184
22.6030000000	173
22.6330000000	188
22.6630000000	226
22.6930000000	227
22.7230000000	220
22.7530000000	218
22.7830000000	252
22.8130000000	225
22.8430000000	181
22.8730000000	190
22.9030000000	194
22.9330000000	179
22.9630000000	179
22.9930000000	155
23.0230000000	170
23.0530000000	167
23.0830000000	174
23.1130000000	185
23.1430000000	169
23.1730000000	186
23.2030000000	162
23.2330000000	172
23.2630000000	189
23.2930000000	197
23.3230000000	172
23.3530000000	176
23.3830000000	157
23.4130000000	163
23.4430000000	168
23.4730000000	156
23.5030000000	160
23.5330000000	178
23.5630000000	160
23.5930000000	182
23.6230000000	159
23.6530000000	159
23.6830000000	182
23.7130000000	171
23.7430000000	168
23.7730000000	187
23.8030000000	160
23.8330000000	127
23.8630000000	184
23.8930000000	188
23.9230000000	178
23.9530000000	166
23.9830000000	147
24.0130000000	152
24.0430000000	176
24.0730000000	184
24.1030000000	175
24.1330000000	174
24.1630000000	161
24.1930000000	167
24.2230000000	139
24.2530000000	171
24.2830000000	174
24.3130000000	163
24.3430000000	170
24.3730000000	159
24.4030000000	158
24.4330000000	169
24.4630000000	156
24.4930000000	143
24.5230000000	174
24.5530000000	172
24.5830000000	168
24.6130000000	163
24.6430000000	160
24.6730000000	171
24.7030000000	178
24.7330000000	163
24.7630000000	175
24.7930000000	161
24.8230000000	151
24.8530000000	160
24.8830000000	157
24.9130000000	188
24.9430000000	159
24.9730000000	166
25.0030000000	178
25.0330000000	164
25.0630000000	169
25.0930000000	154
25.1230000000	177
25.1530000000	181
25.1830000000	175
25.2130000000	173
25.2430000000	165
25.2730000000	157
25.3030000000	165
25.3330000000	162
25.3630000000	178
25.3930000000	176
25.4230000000	167
25.4530000000	166
25.4830000000	162
25.5130000000	152
25.5430000000	169
25.5730000000	181
25.6030000000	181
25.6330000000	166
25.6630000000	193
25.6930000000	176
25.7230000000	163
25.7530000000	164
25.7830000000	178
25.8130000000	157
25.8430000000	151
25.8730000000	151
25.9030000000	156
25.9330000000	181
25.9630000000	158
25.9930000000	146
26.0230000000	161
26.0530000000	172
26.0830000000	176
26.1130000000	180
26.1430000000	175
26.1730000000	190
26.2030000000	205
26.2330000000	205
26.2630000000	264
26.2930000000	328
26.3230000000	400
26.3530000000	575
26.3830000000	751
26.4130000000	913
26.4430000000	962
26.4730000000	937
26.5030000000	698
26.5330000000	484
26.5630000000	397
26.5930000000	306
26.6230000000	243
26.6530000000	211
26.6830000000	219
26.7130000000	219
26.7430000000	193
26.7730000000	181
26.8030000000	191
26.8330000000	181
26.8630000000	175
26.8930000000	162
26.9230000000	157
26.9530000000	147
26.9830000000	140
27.0130000000	148
27.0430000000	153
27.0730000000	145
27.1030000000	141
27.1330000000	154
27.1630000000	165
27.1930000000	157
27.2230000000	129
27.2530000000	154
27.2830000000	172
27.3130000000	149
27.3430000000	151
27.3730000000	164
27.4030000000	134
27.4330000000	144
27.4630000000	148
27.4930000000	145
27.5230000000	152
27.5530000000	166
27.5830000000	164
27.6130000000	145
27.6430000000	141
27.6730000000	138
27.7030000000	134
27.7330000000	137
27.7630000000	140
27.7930000000	149
27.8230000000	149
27.8530000000	134
27.8830000000	146
27.9130000000	149
27.9430000000	162
27.9730000000	166
28.0030000000	165
28.0330000000	180
28.0630000000	151
28.0930000000	124
28.1230000000	146
28.1530000000	146
28.1830000000	143
28.2130000000	167
28.2430000000	152
28.2730000000	140
28.3030000000	148
28.3330000000	152
28.3630000000	132
28.3930000000	140
28.4230000000	144
28.4530000000	133
28.4830000000	144
28.5130000000	151
28.5430000000	152
28.5730000000	130
28.6030000000	130
28.6330000000	175
28.6630000000	152
28.6930000000	147
28.7230000000	153
28.7530000000	148
28.7830000000	144
28.8130000000	166
28.8430000000	168
28.8730000000	176
28.9030000000	153
28.9330000000	155
28.9630000000	146
28.9930000000	165
29.0230000000	162
29.0530000000	139
29.0830000000	155
29.1130000000	142
29.1430000000	123
29.1730000000	141
29.2030000000	157
29.2330000000	128
29.2630000000	130
29.2930000000	134
29.3230000000	128
29.3530000000	139
29.3830000000	123
29.4130000000	125
29.4430000000	145
29.4730000000	110
29.5030000000	129
29.5330000000	129
29.5630000000	138
29.5930000000	142
29.6230000000	140
29.6530000000	130
29.6830000000	123
29.7130000000	145
29.7430000000	126
29.7730000000	149
29.8030000000	126
29.8330000000	143
29.8630000000	132
29.8930000000	141
29.9230000000	131
29.9530000000	148
29.9830000000	153
30.0130000000	165
30.0430000000	151
30.0730000000	144
30.1030000000	152
30.1330000000	170
30.1630000000	181
30.1930000000	207
30.2230000000	268
30.2530000000	378
30.2830000000	500
30.3130000000	695
30.3430000000	1033
30.3730000000	1546
30.4030000000	2280
30.4330000000	2685
30.4630000000	2647
30.4930000000	2255
30.5230000000	1683
30.5530000000	1107
30.5830000000	715
30.6130000000	484
30.6430000000	320
30.6730000000	247
30.7030000000	200
30.7330000000	181
30.7630000000	165
30.7930000000	165
30.8230000000	169
30.8530000000	143
30.8830000000	154
30.9130000000	131
30.9430000000	134
30.9730000000	132
31.0030000000	149
31.0330000000	125
31.0630000000	134
31.0930000000	117
31.1230000000	133
31.1530000000	125
31.1830000000	129
31.2130000000	136
31.2430000000	143
31.2730000000	147
31.3030000000	136
31.3330000000	143
31.3630000000	161
31.3930000000	109
31.4230000000	131
31.4530000000	132
31.4830000000	121
31.5130000000	151
31.5430000000	130
31.5730000000	135
31.6030000000	147
31.6330000000	161
31.6630000000	161
31.6930000000	204
31.7230000000	300
31.7530000000	403
31.7830000000	585
31.8130000000	804
31.8430000000	1152
31.8730000000	1556
31.9030000000	1689
31.9330000000	1618
31.9630000000	1292
31.9930000000	1013
32.0230000000	827
32.0530000000	836
32.0830000000	821
32.1130000000	975
32.1430000000	1139
32.1730000000	1152
32.2030000000	999
32.2330000000	778
32.2630000000	569
32.2930000000	411
32.3230000000	293
32.3530000000	195
32.3830000000	174
32.4130000000	168
32.4430000000	136
32.4730000000	110
32.5030000000	120
32.5330000000	129
32.5630000000	130
32.5930000000	123
32.6230000000	108
32.6530000000	121
32.6830000000	100
32.7130000000	126
32.7430000000	130
32.7730000000	107
32.8030000000	95
32.8330000000	117
32.8630000000	117
32.8930000000	102
32.9230000000	112
32.9530000000	129
32.9830000000	120
33.0130000000	108
33.0430000000	118
33.0730000000	105
33.1030000000	119
33.1330000000	113
33.1630000000	119
33.1930000000	128
33.2230000000	134
33.2530000000	110
33.2830000000	136
33.3130000000	136
33.3430000000	138
33.3730000000	136
33.4030000000	125
33.4330000000	142
33.4630000000	127
33.4930000000	131
33.5230000000	122
33.5530000000	104
33.5830000000	97
33.6130000000	109
33.6430000000	115
33.6730000000	103
33.7030000000	107
33.7330000000	98
33.7630000000	106
33.7930000000	98
33.8230000000	110
33.8530000000	108
33.8830000000	86
33.9130000000	101
33.9430000000	123
33.9730000000	110
34.0030000000	96
34.0330000000	114
34.0630000000	92
34.0930000000	83
34.1230000000	98
34.1530000000	120
34.1830000000	106
34.2130000000	95
34.2430000000	100
34.2730000000	101
34.3030000000	111
34.3330000000	92
34.3630000000	104
34.3930000000	98
34.4230000000	81
34.4530000000	100
34.4830000000	102
34.5130000000	91
34.5430000000	104
34.5730000000	118
34.6030000000	99
34.6330000000	99
34.6630000000	99
34.6930000000	106
34.7230000000	90
34.7530000000	91
34.7830000000	110
34.8130000000	100
34.8430000000	93
34.8730000000	101
34.9030000000	106
34.9330000000	109
34.9630000000	95
34.9930000000	90
35.0230000000	113
35.0530000000	94
35.0830000000	96
35.1130000000	106
35.1430000000	116
35.1730000000	107
35.2030000000	121
35.2330000000	139
35.2630000000	152
35.2930000000	184
35.3230000000	215
35.3530000000	257
35.3830000000	262
35.4130000000	216
35.4430000000	214
35.4730000000	210
35.5030000000	153
35.5330000000	142
35.5630000000	122
35.5930000000	94
35.6230000000	94
35.6530000000	100
35.6830000000	103
35.7130000000	108
35.7430000000	104
35.7730000000	109
35.8030000000	112
35.8330000000	97
35.8630000000	98
35.8930000000	96
35.9230000000	87
35.9530000000	98
35.9830000000	101
36.0130000000	106
36.0430000000	93
36.0730000000	91
36.1030000000	103
36.1330000000	93
36.1630000000	86
36.1930000000	99
36.2230000000	113
36.2530000000	98
36.2830000000	76
36.3130000000	91
36.3430000000	114
36.3730000000	103
36.4030000000	107
36.4330000000	112
36.4630000000	136
36.4930000000	130
36.5230000000	165
36.5530000000	216
36.5830000000	250
36.6130000000	348
36.6430000000	418
36.6730000000	460
36.7030000000	416
36.7330000000	368
36.7630000000	296
36.7930000000	203
36.8230000000	162
36.8530000000	144
36.8830000000	123
36.9130000000	99
36.9430000000	86
36.9730000000	93
37.0030000000	94
37.0330000000	93
37.0630000000	92
37.0930000000	84
37.1230000000	85
37.1530000000	88
37.1830000000	81
37.2130000000	101
37.2430000000	104
37.2730000000	99
37.3030000000	98
37.3330000000	86
37.3630000000	75
37.3930000000	84
37.4230000000	93
37.4530000000	78
37.4830000000	98
37.5130000000	101
37.5430000000	84
37.5730000000	80
37.6030000000	85
37.6330000000	82
37.6630000000	90
37.6930000000	89
37.7230000000	96
37.7530000000	91
37.7830000000	88
37.8130000000	89
37.8430000000	75
37.8730000000	88
37.9030000000	91
37.9330000000	79
37.9630000000	84
37.9930000000	70
38.0230000000	73
38.0530000000	79
38.0830000000	73
38.1130000000	84
38.1430000000	79
38.1730000000	78
38.2030000000	91
38.2330000000	88
38.2630000000	80
38.2930000000	79
38.3230000000	88
38.3530000000	92
38.3830000000	76
38.4130000000	78
38.4430000000	84
38.4730000000	87
38.5030000000	90
38.5330000000	101
38.5630000000	91
38.5930000000	77
38.6230000000	86
38.6530000000	81
38.6830000000	94
38.7130000000	87
38.7430000000	79
38.7730000000	84
38.8030000000	89
38.8330000000	82
38.8630000000	79
38.8930000000	91
38.9230000000	87
38.9530000000	87
38.9830000000	86
39.0130000000	84
39.0430000000	87
39.0730000000	81
39.1030000000	106
39.1330000000	102
39.1630000000	106
39.1930000000	94
39.2230000000	103
39.2530000000	98
39.2830000000	76
39.3130000000	75
39.3430000000	87
39.3730000000	81
39.4030000000	103
39.4330000000	102
39.4630000000	110
39.4930000000	126
39.5230000000	140
39.5530000000	160
39.5830000000	200
39.6130000000	267
39.6430000000	345
39.6730000000	527
39.7030000000	779
39.7330000000	1030
39.7630000000	1162
39.7930000000	1236
39.8230000000	1026
39.8530000000	838
39.8830000000	612
39.9130000000	409
39.9430000000	306
39.9730000000	170
40.0030000000	153
40.0330000000	124
40.0630000000	110
40.0930000000	123
40.1230000000	91
40.1530000000	88
40.1830000000	98
40.2130000000	81
40.2430000000	77
40.2730000000	83
40.3030000000	85
40.3330000000	82
40.3630000000	83
40.3930000000	87
40.4230000000	90
40.4530000000	96
40.4830000000	89
40.5130000000	73
40.5430000000	74
40.5730000000	74
40.6030000000	90
40.6330000000	97
40.6630000000	92
40.6930000000	95
40.7230000000	110
40.7530000000	82
40.7830000000	107
40.8130000000	80
40.8430000000	83
40.8730000000	90
40.9030000000	78
40.9330000000	88
40.9630000000	88
40.9930000000	76
41.0230000000	99
41.0530000000	88
41.0830000000	98
41.1130000000	85
41.1430000000	82
41.1730000000	89
41.2030000000	91
41.2330000000	96
41.2630000000	94
41.2930000000	74
41.3230000000	76
41.3530000000	102
41.3830000000	84
41.4130000000	88
41.4430000000	73
41.4730000000	99
41.5030000000	90
41.5330000000	80
41.5630000000	92
41.5930000000	87
41.6230000000	69
41.6530000000	77
41.6830000000	84
41.7130000000	93
41.7430000000	87
41.7730000000	83
41.8030000000	72
41.8330000000	81
41.8630000000	73
41.8930000000	76
41.9230000000	81
41.9530000000	74
41.9830000000	78
42.0130000000	86
42.0430000000	87
42.0730000000	77
42.1030000000	73
42.1330000000	78
42.1630000000	74
42.1930000000	77
42.2230000000	74
42.2530000000	88
42.2830000000	75
42.3130000000	74
42.3430000000	79
42.3730000000	77
42.4030000000	90
42.4330000000	87
42.4630000000	85
42.4930000000	85
42.5230000000	88
42.5530000000	89
42.5830000000	84
42.6130000000	96
42.6430000000	93
42.6730000000	85
42.7030000000	91
42.7330000000	90
42.7630000000	85
42.7930000000	86
42.8230000000	93
42.8530000000	78
42.8830000000	95
42.9130000000	93
42.9430000000	105
42.9730000000	110
43.0030000000	113
43.0330000000	161
43.0630000000	228
43.0930000000	311
43.1230000000	442
43.1530000000	662
43.1830000000	895
43.2130000000	1110
43.2430000000	1258
43.2730000000	1310
43.3030000000	1098
43.3330000000	885
43.3630000000	647
43.3930000000	414
43.4230000000	292
43.4530000000	231
43.4830000000	180
43.5130000000	103
43.5430000000	104
43.5730000000	115
43.6030000000	109
43.6330000000	90
43.6630000000	99
43.6930000000	101
43.7230000000	105
43.7530000000	115
43.7830000000	129
43.8130000000	125
43.8430000000	121
43.8730000000	108
43.9030000000	90
43.9330000000	103
43.9630000000	83
43.9930000000	86
44.0230000000	84
44.0530000000	88
44.0830000000	98
44.1130000000	80
44.1430000000	83
44.1730000000	66
44.2030000000	81
44.2330000000	73
44.2630000000	64
44.2930000000	76
44.3230000000	69
44.3530000000	61
44.3830000000	77
44.4130000000	74
44.4430000000	68
44.4730000000	76
44.5030000000	63
44.5330000000	89
44.5630000000	75
44.5930000000	86
44.6230000000	74
44.6530000000	68
44.6830000000	69
44.7130000000	76
44.7430000000	75
44.7730000000	85
44.8030000000	74
44.8330000000	103
44.8630000000	100
44.8930000000	119
44.9230000000	145
44.9530000000	203
44.9830000000	279
45.0130000000	392
45.0430000000	488
45.0730000000	712
45.1030000000	835
45.1330000000	848
45.1630000000	750
45.1930000000	647
45.2230000000	478
45.2530000000	325
45.2830000000	227
45.3130000000	169
45.3430000000	120
45.3730000000	93
45.4030000000	85
45.4330000000	76
45.4630000000	79
45.4930000000	86
45.5230000000	77
45.5530000000	69
45.5830000000	75
45.6130000000	73
45.6430000000	68
45.6730000000	76
45.7030000000	71
45.7330000000	57
45.7630000000	62
45.7930000000	73
45.8230000000	65
45.8530000000	63
45.8830000000	86
45.9130000000	80
45.9430000000	93
45.9730000000	125
46.0030000000	131
46.0330000000	147
46.0630000000	180
46.0930000000	211
46.1230000000	217
46.1530000000	172
46.1830000000	163
46.2130000000	150
46.2430000000	121
46.2730000000	115
46.3030000000	87
46.3330000000	104
46.3630000000	86
46.3930000000	87
46.4230000000	108
46.4530000000	111
46.4830000000	115
46.5130000000	102
46.5430000000	117
46.5730000000	105
46.6030000000	89
46.6330000000	111
46.6630000000	79
46.6930000000	74
46.7230000000	82
46.7530000000	64
46.7830000000	91
46.8130000000	64
46.8430000000	98
46.8730000000	113
46.9030000000	118
46.9330000000	184
46.9630000000	192
46.9930000000	228
47.0230000000	261
47.0530000000	253
47.0830000000	255
47.1130000000	199
47.1430000000	194
47.1730000000	140
47.2030000000	125
47.2330000000	79
47.2630000000	67
47.2930000000	72
47.3230000000	65
47.3530000000	62
47.3830000000	74
47.4130000000	70
47.4430000000	78
47.4730000000	73
47.5030000000	80
47.5330000000	86
47.5630000000	77
47.5930000000	86
47.6230000000	74
47.6530000000	75
47.6830000000	74
47.7130000000	57
47.7430000000	67
47.7730000000	59
47.8030000000	65
47.8330000000	73
47.8630000000	65
47.8930000000	61
47.9230000000	51
47.9530000000	52
47.9830000000	60
48.0130000000	46
48.0430000000	78
48.0730000000	73
48.1030000000	67
48.1330000000	63
48.1630000000	56
48.1930000000	59
48.2230000000	58
48.2530000000	64
48.2830000000	59
48.3130000000	44
48.3430000000	61
48.3730000000	60
48.4030000000	56
48.4330000000	49
48.4630000000	54
48.4930000000	52
48.5230000000	56
48.5530000000	50
48.5830000000	58
48.6130000000	63
48.6430000000	56
48.6730000000	66
48.7030000000	65
48.7330000000	54
48.7630000000	51
48.7930000000	58
48.8230000000	57
48.8530000000	56
48.8830000000	51
48.9130000000	53
48.9430000000	46
48.9730000000	48
49.0030000000	56
49.0330000000	50
49.0630000000	52
49.0930000000	52
49.1230000000	54
49.1530000000	52
49.1830000000	55
49.2130000000	71
49.2430000000	46
49.2730000000	42
49.3030000000	51
49.3330000000	57
49.3630000000	55
49.3930000000	59
49.4230000000	43
49.4530000000	55
49.4830000000	47
49.5130000000	50
49.5430000000	55
49.5730000000	46
49.6030000000	59
49.6330000000	55
49.6630000000	52
49.6930000000	49
49.7230000000	52
49.7530000000	58
49.7830000000	62
49.8130000000	55
49.8430000000	54
49.8730000000	65
49.9030000000	51
49.9330000000	58
49.9630000000	58
49.9930000000	67
50.0230000000	51
50.0530000000	63
50.0830000000	51
50.1130000000	45
50.1430000000	50
50.1730000000	56
50.2030000000	68
50.2330000000	55
50.2630000000	62
50.2930000000	55
50.3230000000	44
50.3530000000	52
50.3830000000	50
50.4130000000	55
50.4430000000	67
50.4730000000	73
50.5030000000	85
50.5330000000	90
50.5630000000	89
50.5930000000	94
50.6230000000	94
50.6530000000	74
50.6830000000	81
50.7130000000	91
50.7430000000	73
50.7730000000	58
50.8030000000	72
50.8330000000	58
50.8630000000	56
50.8930000000	54
50.9230000000	45
50.9530000000	56
50.9830000000	63
51.0130000000	59
51.0430000000	58
51.0730000000	47
51.1030000000	56
51.1330000000	57
51.1630000000	57
51.1930000000	44
51.2230000000	43
51.2530000000	46
51.2830000000	52
51.3130000000	58
51.3430000000	62
51.3730000000	57
51.4030000000	56
51.4330000000	57
51.4630000000	48
51.4930000000	45
51.5230000000	44
51.5530000000	53
51.5830000000	42
51.6130000000	50
51.6430000000	47
51.6730000000	51
51.7030000000	56
51.7330000000	47
51.7630000000	48
51.7930000000	49
51.8230000000	49
51.8530000000	54
51.8830000000	46
51.9130000000	62
51.9430000000	45
51.9730000000	55
52.0030000000	57
52.0330000000	52
52.0630000000	76
52.0930000000	65
52.1230000000	86
52.1530000000	83
52.1830000000	78
52.2130000000	93
52.2430000000	83
52.2730000000	74
52.3030000000	69
52.3330000000	71
52.3630000000	57
52.3930000000	54
52.4230000000	49
52.4530000000	48
52.4830000000	58
52.5130000000	41
52.5430000000	35
52.5730000000	39
52.6030000000	55
52.6330000000	36
52.6630000000	42
52.6930000000	54
52.7230000000	55
52.7530000000	46
52.7830000000	52
52.8130000000	41
52.8430000000	43
52.8730000000	50
52.9030000000	49
52.9330000000	40
52.9630000000	52
52.9930000000	53
53.0230000000	62
53.0530000000	61
53.0830000000	55
53.1130000000	54
53.1430000000	48
53.1730000000	51
53.2030000000	46
53.2330000000	52
53.2630000000	44
53.2930000000	46
53.3230000000	50
53.3530000000	43
53.3830000000	38
53.4130000000	52
53.4430000000	48
53.4730000000	48
53.5030000000	56
53.5330000000	52
53.5630000000	51
53.5930000000	58
53.6230000000	59
53.6530000000	59
53.6830000000	51
53.7130000000	54
53.7430000000	60
53.7730000000	62
53.8030000000	66
53.8330000000	67
53.8630000000	80
53.8930000000	105
53.9230000000	127
53.9530000000	117
53.9830000000	105
54.0130000000	97
54.0430000000	105
54.0730000000	91
54.1030000000	73
54.1330000000	78
54.1630000000	69
54.1930000000	53
54.2230000000	50
54.2530000000	59
54.2830000000	49
54.3130000000	59
54.3430000000	50
54.3730000000	57
54.4030000000	49
54.4330000000	65
54.4630000000	59
54.4930000000	56
54.5230000000	45
54.5530000000	58
54.5830000000	52
54.6130000000	50
54.6430000000	51
54.6730000000	43
54.7030000000	51
54.7330000000	43
54.7630000000	52
54.7930000000	50
54.8230000000	42
54.8530000000	53
54.8830000000	53
54.9130000000	71
54.9430000000	67
54.9730000000	87
55.0030000000	102
55.0330000000	122
55.0630000000	126
55.0930000000	112
55.1230000000	112
55.1530000000	100
55.1830000000	86
55.2130000000	94
55.2430000000	81
55.2730000000	71
55.3030000000	49
55.3330000000	74
55.3630000000	60
55.3930000000	83
55.4230000000	92
55.4530000000	113
55.4830000000	133
55.5130000000	154
55.5430000000	135
55.5730000000	125
55.6030000000	95
55.6330000000	89
55.6630000000	86
55.6930000000	70
55.7230000000	63
55.7530000000	53
55.7830000000	60
55.8130000000	55
55.8430000000	39
55.8730000000	57
55.9030000000	55
55.9330000000	56
55.9630000000	43
55.9930000000	54
56.0230000000	43
56.0530000000	49
56.0830000000	43
56.1130000000	48
56.1430000000	59
56.1730000000	36
56.2030000000	44
56.2330000000	52
56.2630000000	54
56.2930000000	47
56.3230000000	51
56.3530000000	48
56.3830000000	46
56.4130000000	48
56.4430000000	43
56.4730000000	34
56.5030000000	35
56.5330000000	40
56.5630000000	45
56.5930000000	59
56.6230000000	44
56.6530000000	37
56.6830000000	58
56.7130000000	52
56.7430000000	39
56.7730000000	44
56.8030000000	38
56.8330000000	49
56.8630000000	45
56.8930000000	42
56.9230000000	41
56.9530000000	49
56.9830000000	46
57.0130000000	42
57.0430000000	47
57.0730000000	48
57.1030000000	52
57.1330000000	43
57.1630000000	44
57.1930000000	60
57.2230000000	49
57.2530000000	51
57.2830000000	62
57.3130000000	56
57.3430000000	58
57.3730000000	46
57.4030000000	37
57.4330000000	42
57.4630000000	43
57.4930000000	38
57.5230000000	34
57.5530000000	49
57.5830000000	47
57.6130000000	51
57.6430000000	50
57.6730000000	41
57.7030000000	44
57.7330000000	36
57.7630000000	44
57.7930000000	46
57.8230000000	39
57.8530000000	41
57.8830000000	40
57.9130000000	37
57.9430000000	54
57.9730000000	42
58.0030000000	33
58.0330000000	52
58.0630000000	39
58.0930000000	40
58.1230000000	40
58.1530000000	43
58.1830000000	47
58.2130000000	36
58.2430000000	62
58.2730000000	55
58.3030000000	51
58.3330000000	39
58.3630000000	41
58.3930000000	50
58.4230000000	45
58.4530000000	36
58.4830000000	39
58.5130000000	47
58.5430000000	45
58.5730000000	44
58.6030000000	30
58.6330000000	43
58.6630000000	47
58.6930000000	40
58.7230000000	37
58.7530000000	48
58.7830000000	58
58.8130000000	49
58.8430000000	38
58.8730000000	36
58.9030000000	55
58.9330000000	54
58.9630000000	44
58.9930000000	38
59.0230000000	36
59.0530000000	36
59.0830000000	42
59.1130000000	38
59.1430000000	47
59.1730000000	47
59.2030000000	48
59.2330000000	51
59.2630000000	44
59.2930000000	49
59.3230000000	49
59.3530000000	47
59.3830000000	41
59.4130000000	49
59.4430000000	43
59.4730000000	55
59.5030000000	45
59.5330000000	37
59.5630000000	44
59.5930000000	43
59.6230000000	54
59.6530000000	48
59.6830000000	48
59.7130000000	52
59.7430000000	44
59.7730000000	39
59.8030000000	50
59.8330000000	45
59.8630000000	49
59.8930000000	51
59.9230000000	33
59.9530000000	42
59.9830000000	45
60.0130000000	46
60.0430000000	47
60.0730000000	45
60.1030000000	45
60.1330000000	43
60.1630000000	66
60.1930000000	78
60.2230000000	93
60.2530000000	91
60.2830000000	145
60.3130000000	131
60.3430000000	117
60.3730000000	123
60.4030000000	103
60.4330000000	94
60.4630000000	109
60.4930000000	80
60.5230000000	56
60.5530000000	62
60.5830000000	52
60.6130000000	54
60.6430000000	42
60.6730000000	40
60.7030000000	50
60.7330000000	35
60.7630000000	42
60.7930000000	39
60.8230000000	34
60.8530000000	41
60.8830000000	39
60.9130000000	40
60.9430000000	40
60.9730000000	43
61.0030000000	48
61.0330000000	49
61.0630000000	39
61.0930000000	54
61.1230000000	58
61.1530000000	44
61.1830000000	47
61.2130000000	45
61.2430000000	51
61.2730000000	54
61.3030000000	68
61.3330000000	64
61.3630000000	58
61.3930000000	68
61.4230000000	62
61.4530000000	68
61.4830000000	82
61.5130000000	84
61.5430000000	108
61.5730000000	142
61.6030000000	120
61.6330000000	127
61.6630000000	97
61.6930000000	93
61.7230000000	76
61.7530000000	85
61.7830000000	61
61.8130000000	51
61.8430000000	52
61.8730000000	39
61.9030000000	41
61.9330000000	45
61.9630000000	55
61.9930000000	53
62.0230000000	37
62.0530000000	50
62.0830000000	30
62.1130000000	55
62.1430000000	34
62.1730000000	48
62.2030000000	44
62.2330000000	46
62.2630000000	44
62.2930000000	41
62.3230000000	55
62.3530000000	45
62.3830000000	38
62.4130000000	46
62.4430000000	47
62.4730000000	45
62.5030000000	50
62.5330000000	57
62.5630000000	34
62.5930000000	41
62.6230000000	37
62.6530000000	40
62.6830000000	33
62.7130000000	51
62.7430000000	51
62.7730000000	33
62.8030000000	41
62.8330000000	57
62.8630000000	42
62.8930000000	41
62.9230000000	41
62.9530000000	40
62.9830000000	50
63.0130000000	51
63.0430000000	48
63.0730000000	54
63.1030000000	42
63.1330000000	41
63.1630000000	39
63.1930000000	33
63.2230000000	34
63.2530000000	40
63.2830000000	44
63.3130000000	47
63.3430000000	53
63.3730000000	52
63.4030000000	50
63.4330000000	54
63.4630000000	45
63.4930000000	43
63.5230000000	45
63.5530000000	55
63.5830000000	48
63.6130000000	45
63.6430000000	40
63.6730000000	42
63.7030000000	44
63.7330000000	40
63.7630000000	52
63.7930000000	48
63.8230000000	43
63.8530000000	49
63.8830000000	54
63.9130000000	48
63.9430000000	35
63.9730000000	54
64.0030000000	41
64.0330000000	35
64.0630000000	40
64.0930000000	45
64.1230000000	43
64.1530000000	40
64.1830000000	45
64.2130000000	39
64.2430000000	43
64.2730000000	43
64.3030000000	36
64.3330000000	34
64.3630000000	37
64.3930000000	50
64.4230000000	40
64.4530000000	54
64.4830000000	50
64.5130000000	48
64.5430000000	52
64.5730000000	52
64.6030000000	59
64.6330000000	46
64.6630000000	53
64.6930000000	54
64.7230000000	44
64.7530000000	50
64.7830000000	55
64.8130000000	51
64.8430000000	55
64.8730000000	41
64.9030000000	36
64.9330000000	46
64.9630000000	45
64.9930000000	41
65.0230000000	48
65.0530000000	39
65.0830000000	42
65.1130000000	43
65.1430000000	48
65.1730000000	35
65.2030000000	39
65.2330000000	49
65.2630000000	33
65.2930000000	28
65.3230000000	40
65.3530000000	40
65.3830000000	32
65.4130000000	53
65.4430000000	48
65.4730000000	36
65.5030000000	49
65.5330000000	36
65.5630000000	44
65.5930000000	25
65.6230000000	33
65.6530000000	38
65.6830000000	41
65.7130000000	32
65.7430000000	50
65.7730000000	28
65.8030000000	37
65.8330000000	54
65.8630000000	33
65.8930000000	42
65.9230000000	52
65.9530000000	39
65.9830000000	44
66.0130000000	42
66.0430000000	44
66.0730000000	30
66.1030000000	49
66.1330000000	64
66.1630000000	76
66.1930000000	80
66.2230000000	122
66.2530000000	129
66.2830000000	140
66.3130000000	165
66.3430000000	153
66.3730000000	134
66.4030000000	123
66.4330000000	108
66.4630000000	117
66.4930000000	126
66.5230000000	99
66.5530000000	78
66.5830000000	72
66.6130000000	68
66.6430000000	63
66.6730000000	48
66.7030000000	51
66.7330000000	62
66.7630000000	45
66.7930000000	45
66.8230000000	40
66.8530000000	55
66.8830000000	53
66.9130000000	49
66.9430000000	37
66.9730000000	32
67.0030000000	42
67.0330000000	41
67.0630000000	54
67.0930000000	50
67.1230000000	39
67.1530000000	40
67.1830000000	41
67.2130000000	38
67.2430000000	45
67.2730000000	51
67.3030000000	36
67.3330000000	45
67.3630000000	36
67.3930000000	36
67.4230000000	34
67.4530000000	34
67.4830000000	39
67.5130000000	48
67.5430000000	41
67.5730000000	45
67.6030000000	43
67.6330000000	44
67.6630000000	42
67.6930000000	36
67.7230000000	38
67.7530000000	45
67.7830000000	47
67.8130000000	44
67.8430000000	39
67.8730000000	38
67.9030000000	41
67.9330000000	34
67.9630000000	43
67.9930000000	44
68.0230000000	41
68.0530000000	38
68.0830000000	32
68.1130000000	49
68.1430000000	46
68.1730000000	58
68.2030000000	40
68.2330000000	36
68.2630000000	44
68.2930000000	38
68.3230000000	37
68.3530000000	38
68.3830000000	48
68.4130000000	47
68.4430000000	38
68.4730000000	46
68.5030000000	35
68.5330000000	37
68.5630000000	34
68.5930000000	39
68.6230000000	36
68.6530000000	49
68.6830000000	50
68.7130000000	49
68.7430000000	39
68.7730000000	40
68.8030000000	43
68.8330000000	45
68.8630000000	40
68.8930000000	37
68.9230000000	41
68.9530000000	37
68.9830000000	42
69.0130000000	38
69.0430000000	45
69.0730000000	33
69.1030000000	41
69.1330000000	50
69.1630000000	35
69.1930000000	44
69.2230000000	56
69.2530000000	44
69.2830000000	49
69.3130000000	53
69.3430000000	50
69.3730000000	57
69.4030000000	40
69.4330000000	49
69.4630000000	52
69.4930000000	45
69.5230000000	46
69.5530000000	49
69.5830000000	45
69.6130000000	39
69.6430000000	41
69.6730000000	47
69.7030000000	49
69.7330000000	43
69.7630000000	45
69.7930000000	47
69.8230000000	44
69.8530000000	41
69.8830000000	43
69.9130000000	38
69.9430000000	42
69.9730000000	49
70.0030000000	46
70.0330000000	31
70.0630000000	44
70.0930000000	56
70.1230000000	31
70.1530000000	40
70.1830000000	42
70.2130000000	45
70.2430000000	41
70.2730000000	43
70.3030000000	32
70.3330000000	49
70.3630000000	47
70.3930000000	50
70.4230000000	45
70.4530000000	41
70.4830000000	30
70.5130000000	43
70.5430000000	40
70.5730000000	40
70.6030000000	34
70.6330000000	30
70.6630000000	34
70.6930000000	38
70.7230000000	49
70.7530000000	42
70.7830000000	34
70.8130000000	38
70.8430000000	36
70.8730000000	36
70.9030000000	41
70.9330000000	38
70.9630000000	42
70.9930000000	40
71.0230000000	38
71.0530000000	42
71.0830000000	50
71.1130000000	44
71.1430000000	49
71.1730000000	42
71.2030000000	34
71.2330000000	44
71.2630000000	40
71.2930000000	38
71.3230000000	35
71.3530000000	42
71.3830000000	33
71.4130000000	43
71.4430000000	55
71.4730000000	41
71.5030000000	47
71.5330000000	50
71.5630000000	43
71.5930000000	36
71.6230000000	46
71.6530000000	37
71.6830000000	43
71.7130000000	47
71.7430000000	48
71.7730000000	33
71.8030000000	38
71.8330000000	34
71.8630000000	44
71.8930000000	42
71.9230000000	44
71.9530000000	60
71.9830000000	52
72.0130000000	40
72.0430000000	54
72.0730000000	66
72.1030000000	52
72.1330000000	46
72.1630000000	48
72.1930000000	60
72.2230000000	54
72.2530000000	58
72.2830000000	68
72.3130000000	69
72.3430000000	76
72.3730000000	62
72.4030000000	92
72.4330000000	102
72.4630000000	104
72.4930000000	99
72.5230000000	84
72.5530000000	100
72.5830000000	89
72.6130000000	94
72.6430000000	75
72.6730000000	71
72.7030000000	82
72.7330000000	64
72.7630000000	69
72.7930000000	82
72.8230000000	101
72.8530000000	108
72.8830000000	129
72.9130000000	153
72.9430000000	149
72.9730000000	147
73.0030000000	135
73.0330000000	144
73.0630000000	115
73.0930000000	125
73.1230000000	113
73.1530000000	91
73.1830000000	77
73.2130000000	73
73.2430000000	71
73.2730000000	59
73.3030000000	62
73.3330000000	68
73.3630000000	54
73.3930000000	50
73.4230000000	58
73.4530000000	51
73.4830000000	40
73.5130000000	51
73.5430000000	50
73.5730000000	46
73.6030000000	43
73.6330000000	41
73.6630000000	42
73.6930000000	36
73.7230000000	33
73.7530000000	45
73.7830000000	40
73.8130000000	45
73.8430000000	35
73.8730000000	40
73.9030000000	47
73.9330000000	43
73.9630000000	38
73.9930000000	42
74.0230000000	49
74.0530000000	40
74.0830000000	39
74.1130000000	39
74.1430000000	38
74.1730000000	35
74.2030000000	37
74.2330000000	50
74.2630000000	41
74.2930000000	48
74.3230000000	38
74.3530000000	55
74.3830000000	49
74.4130000000	43
74.4430000000	42
74.4730000000	36
74.5030000000	44
74.5330000000	51
74.5630000000	40
74.5930000000	37
74.6230000000	45
74.6530000000	50
74.6830000000	49
74.7130000000	52
74.7430000000	54
74.7730000000	50
74.8030000000	59
74.8330000000	67
74.8630000000	59
74.8930000000	47
74.9230000000	51
74.9530000000	43
74.9830000000	43
75.0130000000	43
75.0430000000	36
75.0730000000	44
75.1030000000	45
75.1330000000	41
75.1630000000	63
75.1930000000	56
75.2230000000	50
75.2530000000	45
75.2830000000	51
75.3130000000	58
75.3430000000	47
75.3730000000	38
75.4030000000	46
75.4330000000	55
75.4630000000	51
75.4930000000	46
75.5230000000	42
75.5530000000	38
75.5830000000	50
75.6130000000	25
75.6430000000	41
75.6730000000	39
75.7030000000	50
75.7330000000	39
75.7630000000	41
75.7930000000	39
75.8230000000	34
75.8530000000	35
75.8830000000	35
75.9130000000	39
75.9430000000	26
75.9730000000	42
76.0030000000	38
76.0330000000	35
76.0630000000	50
76.0930000000	45
76.1230000000	28
76.1530000000	33
76.1830000000	31
76.2130000000	35
76.2430000000	45
76.2730000000	50
76.3030000000	31
76.3330000000	38
76.3630000000	42
76.3930000000	36
76.4230000000	37
76.4530000000	42
76.4830000000	48
76.5130000000	43
76.5430000000	41
76.5730000000	31
76.6030000000	41
76.6330000000	33
76.6630000000	45
76.6930000000	38
76.7230000000	37
76.7530000000	44
76.7830000000	30
76.8130000000	41
76.8430000000	35
76.8730000000	30
76.9030000000	41
76.9330000000	34
76.9630000000	38
76.9930000000	53
77.0230000000	26
77.0530000000	35
77.0830000000	33
77.1130000000	29
77.1430000000	37
77.1730000000	43
77.2030000000	49
77.2330000000	44
77.2630000000	41
77.2930000000	36
77.3230000000	51
77.3530000000	36
77.3830000000	44
77.4130000000	54
77.4430000000	50
77.4730000000	62
77.5030000000	49
77.5330000000	64
77.5630000000	68
77.5930000000	71
77.6230000000	70
77.6530000000	64
77.6830000000	68
77.7130000000	58
77.7430000000	56
77.7730000000	68
77.8030000000	63
77.8330000000	61
77.8630000000	54
77.8930000000	51
77.9230000000	49
77.9530000000	64
77.9830000000	58
78.0130000000	57
78.0430000000	52
78.0730000000	52
78.1030000000	54
78.1330000000	49
78.1630000000	58
78.1930000000	43
78.2230000000	37
78.2530000000	36
78.2830000000	36
78.3130000000	45
78.3430000000	44
78.3730000000	35
78.4030000000	33
78.4330000000	38
78.4630000000	49
78.4930000000	36
78.5230000000	48
78.5530000000	39
78.5830000000	38
78.6130000000	42
78.6430000000	44
78.6730000000	48
78.7030000000	47
78.7330000000	57
78.7630000000	52
78.7930000000	47
78.8230000000	40
78.8530000000	48
78.8830000000	55
78.9130000000	47
78.9430000000	61
78.9730000000	54
79.0030000000	47
79.0330000000	47
79.0630000000	48
79.0930000000	38
79.1230000000	36
79.1530000000	35
79.1830000000	39
79.2130000000	40
79.2430000000	34
79.2730000000	27
79.3030000000	39
79.3330000000	32
79.3630000000	47
79.3930000000	40
79.4230000000	41
79.4530000000	41
79.4830000000	35
79.5130000000	40
79.5430000000	38
79.5730000000	51
79.6030000000	32
79.6330000000	45
79.6630000000	44
79.6930000000	38
79.7230000000	41
79.7530000000	31
79.7830000000	48
79.8130000000	46
79.8430000000	48
79.8730000000	55
79.9030000000	37
79.9330000000	43
79.9630000000	46
79.9930000000	32
80.0230000000	39
80.0530000000	42
80.0830000000	33
80.1130000000	39
80.1430000000	54
80.1730000000	37
80.2030000000	39
80.2330000000	42
80.2630000000	45
80.2930000000	34
80.3230000000	32
80.3530000000	46
80.3830000000	47
80.4130000000	38
80.4430000000	41
80.4730000000	43
80.5030000000	28
80.5330000000	35
80.5630000000	43
80.5930000000	61
80.6230000000	49
80.6530000000	59
80.6830000000	66
80.7130000000	69
80.7430000000	60
80.7730000000	50
80.8030000000	58
80.8330000000	53
80.8630000000	56
80.8930000000	54
80.9230000000	43
80.9530000000	49
80.9830000000	38
81.0130000000	27
81.0430000000	50
81.0730000000	37
81.1030000000	40
81.1330000000	35
81.1630000000	36
81.1930000000	46
81.2230000000	48
81.2530000000	48
81.2830000000	47
81.3130000000	30
81.3430000000	50
81.3730000000	45
81.4030000000	48
81.4330000000	39
81.4630000000	41
81.4930000000	46
81.5230000000	44
81.5530000000	36
81.5830000000	40
81.6130000000	44
81.6430000000	42
81.6730000000	38
81.7030000000	36
81.7330000000	47
81.7630000000	44
81.7930000000	33
81.8230000000	34
81.8530000000	40
81.8830000000	38
81.9130000000	42
81.9430000000	40
81.9730000000	38
82.0030000000	36
82.0330000000	36
82.0630000000	41
82.0930000000	47
82.1230000000	46
82.1530000000	37
82.1830000000	38
82.2130000000	37
82.2430000000	43
82.2730000000	38
82.3030000000	33
82.3330000000	33
82.3630000000	36
82.3930000000	37
82.4230000000	37
82.4530000000	29
82.4830000000	34
82.5130000000	38
82.5430000000	36
82.5730000000	33
82.6030000000	29
82.6330000000	39
82.6630000000	36
82.6930000000	26
82.7230000000	44
82.7530000000	43
82.7830000000	36
82.8130000000	46
82.8430000000	38
82.8730000000	37
82.9030000000	46
82.9330000000	40
82.9630000000	34
82.9930000000	43
83.0230000000	46
83.0530000000	33
83.0830000000	48
83.1130000000	40
83.1430000000	44
83.1730000000	47
83.2030000000	53
83.2330000000	49
83.2630000000	46
83.2930000000	54
83.3230000000	61
83.3530000000	54
83.3830000000	63
83.4130000000	53
83.4430000000	53
83.4730000000	48
83.5030000000	54
83.5330000000	60
83.5630000000	51
83.5930000000	42
83.6230000000	49
83.6530000000	49
83.6830000000	44
83.7130000000	50
83.7430000000	45
83.7730000000	46
83.8030000000	43
83.8330000000	47
83.8630000000	41
83.8930000000	39
83.9230000000	45
83.9530000000	45
83.9830000000	38
84.0130000000	39
84.0430000000	35
84.0730000000	43
84.1030000000	43
84.1330000000	41
84.1630000000	41
84.1930000000	45
84.2230000000	26
84.2530000000	29
84.2830000000	24
84.3130000000	37
84.3430000000	35
84.3730000000	47
84.4030000000	34
84.4330000000	35
84.4630000000	38
84.4930000000	38
84.5230000000	28
84.5530000000	37
84.5830000000	38
84.6130000000	41
84.6430000000	35
84.6730000000	44
84.7030000000	44
84.7330000000	27
84.7630000000	33
84.7930000000	32
84.8230000000	37
84.8530000000	46
84.8830000000	44
84.9130000000	35
84.9430000000	38
84.9730000000	33
85.0030000000	32
85.0330000000	39
85.0630000000	33
85.0930000000	35
85.1230000000	38
85.1530000000	29
85.1830000000	28
85.2130000000	41
85.2430000000	35
85.2730000000	35
85.3030000000	32
85.3330000000	27
85.3630000000	32
85.3930000000	29
85.4230000000	23
85.4530000000	27
85.4830000000	43
85.5130000000	45
85.5430000000	45
85.5730000000	52
85.6030000000	35
85.6330000000	57
85.6630000000	62
85.6930000000	43
85.7230000000	45
85.7530000000	44
85.7830000000	41
85.8130000000	41
85.8430000000	46
85.8730000000	32
85.9030000000	47
85.9330000000	48
85.9630000000	43
85.9930000000	42
86.0230000000	44
86.0530000000	40
86.0830000000	40
86.1130000000	35
86.1430000000	32
86.1730000000	42
86.2030000000	37
86.2330000000	45
86.2630000000	35
86.2930000000	48
86.3230000000	34
86.3530000000	42
86.3830000000	36
86.4130000000	45
86.4430000000	43
86.4730000000	47
86.5030000000	39
86.5330000000	39
86.5630000000	49
86.5930000000	41
86.6230000000	33
86.6530000000	43
86.6830000000	42
86.7130000000	33
86.7430000000	39
86.7730000000	40
86.8030000000	33
86.8330000000	43
86.8630000000	47
86.8930000000	44
86.9230000000	45
86.9530000000	36
86.9830000000	43
87.0130000000	52
87.0430000000	45
87.0730000000	45
87.1030000000	42
87.1330000000	42
87.1630000000	34
87.1930000000	26
87.2230000000	38
87.2530000000	43
87.2830000000	35
87.3130000000	30
87.3430000000	39
87.3730000000	37
87.4030000000	31
87.4330000000	42
87.4630000000	41
87.4930000000	35
87.5230000000	32
87.5530000000	36
87.5830000000	35
87.6130000000	41
87.6430000000	50
87.6730000000	51
87.7030000000	40
87.7330000000	51
87.7630000000	47
87.7930000000	40
87.8230000000	29
87.8530000000	47
87.8830000000	33
87.9130000000	42
87.9430000000	48
87.9730000000	43
88.0030000000	46
88.0330000000	38
88.0630000000	44
88.0930000000	41
88.1230000000	41
88.1530000000	49
88.1830000000	34
88.2130000000	58
88.2430000000	44
88.2730000000	36
88.3030000000	47
88.3330000000	56
88.3630000000	58
88.3930000000	57
88.4230000000	39
88.4530000000	46
88.4830000000	34
88.5130000000	44
88.5430000000	44
88.5730000000	38
88.6030000000	35
88.6330000000	46
88.6630000000	45
88.6930000000	37
88.7230000000	39
88.7530000000	48
88.7830000000	30
88.8130000000	40
88.8430000000	47
88.8730000000	39
88.9030000000	28
88.9330000000	39
88.9630000000	38
88.9930000000	39
89.0230000000	46
89.0530000000	41
89.0830000000	38
89.1130000000	44
89.1430000000	36
89.1730000000	45
89.2030000000	48
89.2330000000	45
89.2630000000	39
89.2930000000	35
89.3230000000	42
89.3530000000	38
89.3830000000	39
89.4130000000	39
89.4430000000	47
89.4730000000	54
89.5030000000	39
89.5330000000	51
89.5630000000	60
89.5930000000	63
89.6230000000	50
89.6530000000	54
89.6830000000	52
89.7130000000	51
89.7430000000	60
89.7730000000	57
89.8030000000	44
89.8330000000	46
89.8630000000	50
89.8930000000	38
89.9230000000	50
89.9530000000	51
89.9830000000	41
90.0130000000	43
90.0430000000	46
90.0730000000	47
90.1030000000	44
90.1330000000	44
90.1630000000	39
90.1930000000	45
90.2230000000	43
90.2530000000	40
90.2830000000	34
90.3130000000	42
90.3430000000	33
90.3730000000	34
90.4030000000	41
90.4330000000	32
90.4630000000	51
90.4930000000	35
90.5230000000	48
90.5530000000	41
90.5830000000	38
90.6130000000	39
90.6430000000	30
90.6730000000	28
90.7030000000	38
90.7330000000	51
90.7630000000	37
90.7930000000	36
90.8230000000	26
90.8530000000	33
90.8830000000	36
90.9130000000	42
90.9430000000	37
90.9730000000	33
91.0030000000	26
91.0330000000	31
91.0630000000	34
91.0930000000	45
91.1230000000	44
91.1530000000	39
91.1830000000	36
91.2130000000	36
91.2430000000	46
91.2730000000	37
91.3030000000	39
91.3330000000	35
91.3630000000	36
91.3930000000	31
91.4230000000	36
91.4530000000	37
91.4830000000	32
91.5130000000	32
91.5430000000	35
91.5730000000	31
91.6030000000	38
91.6330000000	49
91.6630000000	50
91.6930000000	43
91.7230000000	29
91.7530000000	39
91.7830000000	35
91.8130000000	33
91.8430000000	38
91.8730000000	46
91.9030000000	34
91.9330000000	41
91.9630000000	39
91.9930000000	36
92.0230000000	41
92.0530000000	51
92.0830000000	51
92.1130000000	32
92.1430000000	41
92.1730000000	39
92.2030000000	44
92.2330000000	34
92.2630000000	30
92.2930000000	41
92.3230000000	36
92.3530000000	29
92.3830000000	31
92.4130000000	35
92.4430000000	45
92.4730000000	33
92.5030000000	33
92.5330000000	41
92.5630000000	31
92.5930000000	45
92.6230000000	41
92.6530000000	43
92.6830000000	43
92.7130000000	33
92.7430000000	40
92.7730000000	30
92.8030000000	36
92.8330000000	31
92.8630000000	32
92.8930000000	33
92.9230000000	37
92.9530000000	42
92.9830000000	30
93.0130000000	34
93.0430000000	34
93.0730000000	35
93.1030000000	40
93.1330000000	40
93.1630000000	39
93.1930000000	34
93.2230000000	28
93.2530000000	33
93.2830000000	40
93.3130000000	39
93.3430000000	29
93.3730000000	37
93.4030000000	36
93.4330000000	31
93.4630000000	46
93.4930000000	39
93.5230000000	34
93.5530000000	38
93.5830000000	33
93.6130000000	38
93.6430000000	35
93.6730000000	38
93.7030000000	41
93.7330000000	36
93.7630000000	45
93.7930000000	44
93.8230000000	39
93.8530000000	39
93.8830000000	44
93.9130000000	42
93.9430000000	46
93.9730000000	42
94.0030000000	40
94.0330000000	37
94.0630000000	42
94.0930000000	43
94.1230000000	48
94.1530000000	39
94.1830000000	38
94.2130000000	35
94.2430000000	37
94.2730000000	39
94.3030000000	36
94.3330000000	34
94.3630000000	37
94.3930000000	44
94.4230000000	44
94.4530000000	31
94.4830000000	36
94.5130000000	34
94.5430000000	43
94.5730000000	45
94.6030000000	40
94.6330000000	45
94.6630000000	46
94.6930000000	41
94.7230000000	38
94.7530000000	36
94.7830000000	30
94.8130000000	29
94.8430000000	28
94.8730000000	46
94.9030000000	43
94.9330000000	39
94.9630000000	36
94.9930000000	44
95.0230000000	40
95.0530000000	32
95.0830000000	45
95.1130000000	43
95.1430000000	35
95.1730000000	45
95.2030000000	28
95.2330000000	37
95.2630000000	37
95.2930000000	30
95.3230000000	31
95.3530000000	41
95.3830000000	42
95.4130000000	34
95.4430000000	38
95.4730000000	34
95.5030000000	40
95.5330000000	29
95.5630000000	36
95.5930000000	44
95.6230000000	43
95.6530000000	39
95.6830000000	37
95.7130000000	42
95.7430000000	35
95.7730000000	32
95.8030000000	35
95.8330000000	38
95.8630000000	39
95.8930000000	29
95.9230000000	34
95.9530000000	36
95.9830000000	37
96.0130000000	40
96.0430000000	34
96.0730000000	40
96.1030000000	47
96.1330000000	30
96.1630000000	41
96.1930000000	45
96.2230000000	33
96.2530000000	40
96.2830000000	26
96.3130000000	37
96.3430000000	40
96.3730000000	36
96.4030000000	40
96.4330000000	35
96.4630000000	41
96.4930000000	37
96.5230000000	44
96.5530000000	44
96.5830000000	38
96.6130000000	42
96.6430000000	39
96.6730000000	45
96.7030000000	35
96.7330000000	48
96.7630000000	46
96.7930000000	33
96.8230000000	31
96.8530000000	40
96.8830000000	44
96.9130000000	52
96.9430000000	29
96.9730000000	51
97.0030000000	34
97.0330000000	32
97.0630000000	28
97.0930000000	37
97.1230000000	60
97.1530000000	43
97.1830000000	38
97.2130000000	28
97.2430000000	34
97.2730000000	39
97.3030000000	38
97.3330000000	38
97.3630000000	40
97.3930000000	44
97.4230000000	40
97.4530000000	33
97.4830000000	40
97.5130000000	41
97.5430000000	38
97.5730000000	39
97.6030000000	42
97.6330000000	35
97.6630000000	28
97.6930000000	36
97.7230000000	40
97.7530000000	48
97.7830000000	29
97.8130000000	51
97.8430000000	29
97.8730000000	38
97.9030000000	40
97.9330000000	40
97.9630000000	35
97.9930000000	36
98.0230000000	45
98.0530000000	32
98.0830000000	41
98.1130000000	31
98.1430000000	31
98.1730000000	38
98.2030000000	31
98.2330000000	32
98.2630000000	36
98.2930000000	39
98.3230000000	42
98.3530000000	40
98.3830000000	35
98.4130000000	41
98.4430000000	33
98.4730000000	41
98.5030000000	30
98.5330000000	32
98.5630000000	42
98.5930000000	34
98.6230000000	38
98.6530000000	34
98.6830000000	40
98.7130000000	39
98.7430000000	29
98.7730000000	34
98.8030000000	42
98.8330000000	46
98.8630000000	45
98.8930000000	25
98.9230000000	30
98.9530000000	39
98.9830000000	29
99.0130000000	39
99.0430000000	34
99.0730000000	41
99.1030000000	47
99.1330000000	39
99.1630000000	35
99.1930000000	37
99.2230000000	41
99.2530000000	34
99.2830000000	36
99.3130000000	36
99.3430000000	37
99.3730000000	35
99.4030000000	37
99.4330000000	51
99.4630000000	27
99.4930000000	35
99.5230000000	37
99.5530000000	36
99.5830000000	39
99.6130000000	26
99.6430000000	38
99.6730000000	29
99.7030000000	50
99.7330000000	46
99.7630000000	34
99.7930000000	41
99.8230000000	44
99.8530000000	34
99.8830000000	30
99.9130000000	37
99.9430000000	41
99.9730000000	41
100.0030000000	37
100.0330000000	38
100.0630000000	44
100.0930000000	38
100.1230000000	36
100.1530000000	35
100.1830000000	31
100.2130000000	32
100.2430000000	36
100.2730000000	38
100.3030000000	37
100.3330000000	38
100.3630000000	40
100.3930000000	44
100.4230000000	52
100.4530000000	34
100.4830000000	42
100.5130000000	34
100.5430000000	36
100.5730000000	41
100.6030000000	33
100.6330000000	27
100.6630000000	37
100.6930000000	36
100.7230000000	42
100.7530000000	48
100.7830000000	39
100.8130000000	36
100.8430000000	39
100.8730000000	33
100.9030000000	35
100.9330000000	29
100.9630000000	48
100.9930000000	43
101.0230000000	31
101.0530000000	40
101.0830000000	32
101.1130000000	36
101.1430000000	37
101.1730000000	35
101.2030000000	40
101.2330000000	25
101.2630000000	44
101.2930000000	39
101.3230000000	38
101.3530000000	35
101.3830000000	33
101.4130000000	30
101.4430000000	36
101.4730000000	33
101.5030000000	43
101.5330000000	37
101.5630000000	35
101.5930000000	36
101.6230000000	43
101.6530000000	39
101.6830000000	31
101.7130000000	45
101.7430000000	26
101.7730000000	43
101.8030000000	41
101.8330000000	35
101.8630000000	46
101.8930000000	40
101.9230000000	35
101.9530000000	41
101.9830000000	38
102.0130000000	51
102.0430000000	32
102.0730000000	31
102.1030000000	27
102.1330000000	37
102.1630000000	43
102.1930000000	24
102.2230000000	34
102.2530000000	26
102.2830000000	32
102.3130000000	32
102.3430000000	24
102.3730000000	27
102.4030000000	34
102.4330000000	42
102.4630000000	32
102.4930000000	44
102.5230000000	38
102.5530000000	38
102.5830000000	40
102.6130000000	40
102.6430000000	33
102.6730000000	37
102.7030000000	36
102.7330000000	38
102.7630000000	41
102.7930000000	51
102.8230000000	41
102.8530000000	32
102.8830000000	41
102.9130000000	46
102.9430000000	43
102.9730000000	38
103.0030000000	30
103.0330000000	24
103.0630000000	30
103.0930000000	34
103.1230000000	26
103.1530000000	37
103.1830000000	37
103.2130000000	28
103.2430000000	35
103.2730000000	33
103.3030000000	25
103.3330000000	38
103.3630000000	39
103.3930000000	31
103.4230000000	37
103.4530000000	28
103.4830000000	28
103.5130000000	33
103.5430000000	33
103.5730000000	26
103.6030000000	42
103.6330000000	27
103.6630000000	32
103.6930000000	49
103.7230000000	38
103.7530000000	37
103.7830000000	33
103.8130000000	33
103.8430000000	31
103.8730000000	41
103.9030000000	38
103.9330000000	40
103.9630000000	35
103.9930000000	20
104.0230000000	38
104.0530000000	41
104.0830000000	33
104.1130000000	36
104.1430000000	41
104.1730000000	37
104.2030000000	35
104.2330000000	35
104.2630000000	39
104.2930000000	27
104.3230000000	49
104.3530000000	45
104.3830000000	33
104.4130000000	39
104.4430000000	41
104.4730000000	37
104.5030000000	36
104.5330000000	48
104.5630000000	45
104.5930000000	30
104.6230000000	34
104.6530000000	52
104.6830000000	55
104.7130000000	44
104.7430000000	36
104.7730000000	46
104.8030000000	38
104.8330000000	45
104.8630000000	46
104.8930000000	47
104.9230000000	49
104.9530000000	50
104.9830000000	44
105.0130000000	38
105.0430000000	28
105.0730000000	30
105.1030000000	34
105.1330000000	40
105.1630000000	36
105.1930000000	25
105.2230000000	41
105.2530000000	40
105.2830000000	26
105.3130000000	29
105.3430000000	41
105.3730000000	40
105.4030000000	36
105.4330000000	30
105.4630000000	34
105.4930000000	50
105.5230000000	34
105.5530000000	30
105.5830000000	36
105.6130000000	41
105.6430000000	46
105.6730000000	36
105.7030000000	46
105.7330000000	38
105.7630000000	48
105.7930000000	34
105.8230000000	29
105.8530000000	26
105.8830000000	29
105.9130000000	35
105.9430000000	41
105.9730000000	38
106.0030000000	41
106.0330000000	31
106.0630000000	32
106.0930000000	49
106.1230000000	35
106.1530000000	33
106.1830000000	27
106.2130000000	47
106.2430000000	37
106.2730000000	44
106.3030000000	41
106.3330000000	38
106.3630000000	40
106.3930000000	37
106.4230000000	33
106.4530000000	36
106.4830000000	38
106.5130000000	33
106.5430000000	35
106.5730000000	32
106.6030000000	34
106.6330000000	33
106.6630000000	37
106.6930000000	42
106.7230000000	32
106.7530000000	48
106.7830000000	41
106.8130000000	53
106.8430000000	51
106.8730000000	41
106.9030000000	50
106.9330000000	30
106.9630000000	52
106.9930000000	35
107.0230000000	35
107.0530000000	44
107.0830000000	34
107.1130000000	42
107.1430000000	42
107.1730000000	42
107.2030000000	43
107.2330000000	40
107.2630000000	31
107.2930000000	31
107.3230000000	50
107.3530000000	43
107.3830000000	37
107.4130000000	35
107.4430000000	32
107.4730000000	37
107.5030000000	37
107.5330000000	37
107.5630000000	41
107.5930000000	34
107.6230000000	29
107.6530000000	39
107.6830000000	42
107.7130000000	49
107.7430000000	49
107.7730000000	41
107.8030000000	38
107.8330000000	46
107.8630000000	50
107.8930000000	39
107.9230000000	32
107.9530000000	36
107.9830000000	43
108.0130000000	37
108.0430000000	34
108.0730000000	38
108.1030000000	43
108.1330000000	47
108.1630000000	46
108.1930000000	42
108.2230000000	35
108.2530000000	29
108.2830000000	28
108.3130000000	46
108.3430000000	43
108.3730000000	35
108.4030000000	32
108.4330000000	32
108.4630000000	37
108.4930000000	42
108.5230000000	32
108.5530000000	46
108.5830000000	42
108.6130000000	33
108.6430000000	36
108.6730000000	32
108.7030000000	38
108.7330000000	36
108.7630000000	36
108.7930000000	48
108.8230000000	41
108.8530000000	34
108.8830000000	28
108.9130000000	36
108.9430000000	38
108.9730000000	34
109.0030000000	35
109.0330000000	30
109.0630000000	34
109.0930000000	29
109.1230000000	41
109.1530000000	38
109.1830000000	37
109.2130000000	35
109.2430000000	40
109.2730000000	38
109.3030000000	38
109.3330000000	35
109.3630000000	44
109.3930000000	46
109.4230000000	39
109.4530000000	51
109.4830000000	43
109.5130000000	41
109.5430000000	40
109.5730000000	43
109.6030000000	30
109.6330000000	55
109.6630000000	49
109.6930000000	49
109.7230000000	39
109.7530000000	43
109.7830000000	42
109.8130000000	47
109.8430000000	44
109.8730000000	46
109.9030000000	35
109.9330000000	45
109.9630000000	40
109.9930000000	36
110.0230000000	31
110.0530000000	35
110.0830000000	36
110.1130000000	46
110.1430000000	53
110.1730000000	37
110.2030000000	42
110.2330000000	41
110.2630000000	54
110.2930000000	47
110.3230000000	37
110.3530000000	44
110.3830000000	47
110.4130000000	45
110.4430000000	31
110.4730000000	28
110.5030000000	47
110.5330000000	34
110.5630000000	30
110.5930000000	36
110.6230000000	44
110.6530000000	46
110.6830000000	41
110.7130000000	36
110.7430000000	36
110.7730000000	38
110.8030000000	43
110.8330000000	48
110.8630000000	31
110.8930000000	40
110.9230000000	43
110.9530000000	45
110.9830000000	41
111.0130000000	46
111.0430000000	42
111.0730000000	37
111.1030000000	38
111.1330000000	41
111.1630000000	43
111.1930000000	31
111.2230000000	29
111.2530000000	44
111.2830000000	41
111.3130000000	44
111.3430000000	51
111.3730000000	41
111.4030000000	38
111.4330000000	44
111.4630000000	49
111.4930000000	39
111.5230000000	36
111.5530000000	48
111.5830000000	40
111.6130000000	39
111.6430000000	30
111.6730000000	31
111.7030000000	43
111.7330000000	23
111.7630000000	45
111.7930000000	47
111.8230000000	33
111.8530000000	45
111.8830000000	36
111.9130000000	34
111.9430000000	47
111.9730000000	39
112.0030000000	32
112.0330000000	35
112.0630000000	44
112.0930000000	36
112.1230000000	35
112.1530000000	45
112.1830000000	47
112.2130000000	39
112.2430000000	44
112.2730000000	34
112.3030000000	37
112.3330000000	39
112.3630000000	38
112.3930000000	39
112.4230000000	39
112.4530000000	39
112.4830000000	44
112.5130000000	42
112.5430000000	42
112.5730000000	38
112.6030000000	44
112.6330000000	41
112.6630000000	53
112.6930000000	46
112.7230000000	39
112.7530000000	44
112.7830000000	43
112.8130000000	40
112.8430000000	44
112.8730000000	41
112.9030000000	42
112.9330000000	45
112.9630000000	42
112.9930000000	51
113.0230000000	51
113.0530000000	53
113.0830000000	70
113.1130000000	71
113.1430000000	74
113.1730000000	69
113.2030000000	82
113.2330000000	68
113.2630000000	59
113.2930000000	47
113.3230000000	61
113.3530000000	57
113.3830000000	46
113.4130000000	45
113.4430000000	54
113.4730000000	66
113.5030000000	63
113.5330000000	55
113.5630000000	71
113.5930000000	43
113.6230000000	64
113.6530000000	45
113.6830000000	43
113.7130000000	30
113.7430000000	32
113.7730000000	54
113.8030000000	53
113.8330000000	45
113.8630000000	41
113.8930000000	36
113.9230000000	30
113.9530000000	35
113.9830000000	23
114.0130000000	42
114.0430000000	47
114.0730000000	54
114.1030000000	45
114.1330000000	56
114.1630000000	49
114.1930000000	42
114.2230000000	30
114.2530000000	31
114.2830000000	36
114.3130000000	32
114.3430000000	40
114.3730000000	51
114.4030000000	45
114.4330000000	53
114.4630000000	1
114.4930000000	1
114.5230000000	1
114.5530000000	1
114.5830000000	1
