0.3130000000	1
0.3430000000	1
0.3730000000	1
0.4030000000	1
0.4330000000	1
0.4630000000	2
0.4930000000	1
0.5230000000	1
0.5530000000	1
0.5830000000	1
0.6130000000	1
0.6430000000	1
0.6730000000	1
0.7030000000	1
0.7330000000	1
0.7630000000	1
0.7930000000	1
0.8230000000	2
0.8530000000	1
0.8830000000	1
0.9130000000	1
0.9430000000	1
0.9730000000	1
1.0030000000	1
1.0330000000	1
1.0630000000	2
1.0930000000	1
1.1230000000	1
1.1530000000	2
1.1830000000	1
1.2130000000	1
1.2430000000	1
1.2730000000	1
1.3030000000	1
1.3330000000	1
1.3630000000	1
1.3930000000	1
1.4230000000	1
1.4530000000	1
1.4830000000	1
1.5130000000	1
1.5430000000	1
1.5730000000	1
1.6030000000	1
1.6330000000	1
1.6630000000	2
1.6930000000	1
1.7230000000	1
1.7530000000	1
1.7830000000	2
1.8130000000	1
1.8430000000	1
1.8730000000	1
1.9030000000	1
1.9330000000	1
1.9630000000	1
1.9930000000	1
2.0230000000	1
2.0530000000	1
2.0830000000	2
2.1130000000	1
2.1430000000	2
2.1730000000	2
2.2030000000	1
2.2330000000	2
2.2630000000	2
2.2930000000	1
2.3230000000	1
2.3530000000	1
2.3830000000	1
2.4130000000	1
2.4430000000	1
2.4730000000	2
2.5030000000	2
2.5330000000	1
2.5630000000	2
2.5930000000	2
2.6230000000	1
2.6530000000	1
2.6830000000	1
2.7130000000	2
2.7430000000	3
2.7730000000	2
2.8030000000	2
2.8330000000	3
2.8630000000	1
2.8930000000	2
2.9230000000	2
2.9530000000	4
2.9830000000	1
3.0130000000	1
3.0430000000	2
3.0730000000	1
3.1030000000	1
3.1330000000	2
3.1630000000	1
3.1930000000	1
3.2230000000	1
3.2530000000	1
3.2830000000	2
3.3130000000	2
3.3430000000	2
3.3730000000	3
3.4030000000	1
3.4330000000	1
3.4630000000	2
3.4930000000	3
3.5230000000	1
3.5530000000	2
3.5830000000	1
3.6130000000	3
3.6430000000	1
3.6730000000	1
3.7030000000	3
3.7330000000	2
3.7630000000	2
3.7930000000	3
3.8230000000	1
3.8530000000	3
3.8830000000	3
3.9130000000	3
3.9430000000	1
3.9730000000	2
4.0030000000	4
4.0330000000	3
4.0630000000	3
4.0930000000	3
4.1230000000	2
4.1530000000	3
4.1830000000	5
4.2130000000	4
4.2430000000	2
4.2730000000	6
4.3030000000	3
4.3330000000	4
4.3630000000	3
4.3930000000	8
4.4230000000	6
4.4530000000	8
4.4830000000	17
4.5130000000	23
4.5430000000	35
4.5730000000	42
4.6030000000	78
4.6330000000	79
4.6630000000	109
4.6930000000	132
4.7230000000	115
4.7530000000	123
4.7830000000	135
4.8130000000	134
4.8430000000	127
4.8730000000	143
4.9030000000	125
4.9330000000	133
4.9630000000	152
4.9930000000	147
5.0230000000	141
5.0530000000	122
5.0830000000	139
5.1130000000	141
5.1430000000	156
5.1730000000	136
5.2030000000	133
5.2330000000	130
5.2630000000	130
5.2930000000	145
5.3230000000	131
5.3530000000	160
5.3830000000	142
5.4130000000	139
5.4430000000	150
5.4730000000	138
5.5030000000	123
5.5330000000	143
5.5630000000	143
5.5930000000	148
5.6230000000	155
5.6530000000	153
5.6830000000	146
5.7130000000	147
5.7430000000	143
5.7730000000	130
5.8030000000	148
5.8330000000	138
5.8630000000	152
5.8930000000	137
5.9230000000	152
5.9530000000	138
5.9830000000	149
6.0130000000	136
6.0430000000	136
6.0730000000	144
6.1030000000	147
6.1330000000	128
6.1630000000	161
6.1930000000	147
6.2230000000	138
6.2530000000	167
6.2830000000	132
6.3130000000	128
6.3430000000	157
6.3730000000	132
6.4030000000	142
6.4330000000	147
6.4630000000	153
6.4930000000	161
6.5230000000	154
6.5530000000	151
6.5830000000	157
6.6130000000	134
6.6430000000	153
6.6730000000	147
6.7030000000	140
6.7330000000	141
6.7630000000	159
6.7930000000	139
6.8230000000	129
6.8530000000	148
6.8830000000	147
6.9130000000	142
6.9430000000	154
6.9730000000	145
7.0030000000	146
7.0330000000	167
7.0630000000	155
7.0930000000	138
7.1230000000	149
7.1530000000	145
7.1830000000	168
7.2130000000	162
7.2430000000	148
7.2730000000	146
7.3030000000	155
7.3330000000	149
7.3630000000	127
7.3930000000	123
7.4230000000	125
7.4530000000	135
7.4830000000	155
7.5130000000	151
7.5430000000	136
7.5730000000	136
7.6030000000	130
7.6330000000	134
7.6630000000	148
7.6930000000	152
7.7230000000	138
7.7530000000	143
7.7830000000	160
7.8130000000	159
7.8430000000	151
7.8730000000	154
7.9030000000	159
7.9330000000	154
7.9630000000	152
7.9930000000	140
8.0230000000	135
8.0530000000	158
8.0830000000	165
8.1130000000	179
8.1430000000	146
8.1730000000	149
8.2030000000	138
8.2330000000	144
8.2630000000	147
8.2930000000	138
8.3230000000	150
8.3530000000	128
8.3830000000	157
8.4130000000	143
8.4430000000	128
8.4730000000	136
8.5030000000	147
8.5330000000	150
8.5630000000	130
8.5930000000	142
8.6230000000	147
8.6530000000	136
8.6830000000	159
8.7130000000	137
8.7430000000	155
8.7730000000	124
8.8030000000	128
8.8330000000	144
8.8630000000	138
8.8930000000	144
8.9230000000	147
8.9530000000	151
8.9830000000	150
9.0130000000	163
9.0430000000	134
9.0730000000	162
9.1030000000	142
9.1330000000	159
9.1630000000	137
9.1930000000	149
9.2230000000	146
9.2530000000	136
9.2830000000	139
9.3130000000	143
9.3430000000	154
9.3730000000	139
9.4030000000	146
9.4330000000	152
9.4630000000	149
9.4930000000	136
9.5230000000	141
9.5530000000	140
9.5830000000	152
9.6130000000	144
9.6430000000	149
9.6730000000	171
9.7030000000	148
9.7330000000	134
9.7630000000	142
9.7930000000	126
9.8230000000	131
9.8530000000	173
9.8830000000	125
9.9130000000	162
9.9430000000	144
9.9730000000	166
10.0030000000	156
10.0330000000	135
10.0630000000	140
10.0930000000	140
10.1230000000	159
10.1530000000	150
10.1830000000	154
10.2130000000	174
10.2430000000	143
10.2730000000	132
10.3030000000	127
10.3330000000	154
10.3630000000	146
10.3930000000	146
10.4230000000	153
10.4530000000	136
10.4830000000	150
10.5130000000	114
10.5430000000	153
10.5730000000	142
10.6030000000	142
10.6330000000	145
10.6630000000	161
10.6930000000	139
10.7230000000	140
10.7530000000	128
10.7830000000	138
10.8130000000	116
10.8430000000	142
10.8730000000	139
10.9030000000	160
10.9330000000	138
10.9630000000	133
10.9930000000	145
11.0230000000	131
11.0530000000	126
11.0830000000	134
11.1130000000	155
11.1430000000	134
11.1730000000	134
11.2030000000	174
11.2330000000	149
11.2630000000	151
11.2930000000	149
11.3230000000	129
11.3530000000	151
11.3830000000	159
11.4130000000	135
11.4430000000	141
11.4730000000	129
11.5030000000	157
11.5330000000	146
11.5630000000	140
11.5930000000	137
11.6230000000	132
11.6530000000	130
11.6830000000	148
11.7130000000	144
11.7430000000	144
11.7730000000	155
11.8030000000	145
11.8330000000	141
11.8630000000	121
11.8930000000	153
11.9230000000	150
11.9530000000	138
11.9830000000	145
12.0130000000	140
12.0430000000	145
12.0730000000	156
12.1030000000	164
12.1330000000	159
12.1630000000	165
12.1930000000	152
12.2230000000	143
12.2530000000	139
12.2830000000	147
12.3130000000	118
12.3430000000	153
12.3730000000	163
12.4030000000	160
12.4330000000	153
12.4630000000	158
12.4930000000	160
12.5230000000	149
12.5530000000	154
12.5830000000	150
12.6130000000	153
12.6430000000	140
12.6730000000	144
12.7030000000	146
12.7330000000	149
12.7630000000	148
12.7930000000	144
12.8230000000	148
12.8530000000	145
12.8830000000	148
12.9130000000	158
12.9430000000	166
12.9730000000	153
13.0030000000	152
13.0330000000	153
13.0630000000	139
13.0930000000	149
13.1230000000	154
13.1530000000	137
13.1830000000	142
13.2130000000	131
13.2430000000	144
13.2730000000	153
13.3030000000	157
13.3330000000	146
13.3630000000	129
13.3930000000	140
13.4230000000	147
13.4530000000	155
13.4830000000	156
13.5130000000	160
13.5430000000	157
13.5730000000	171
13.6030000000	123
13.6330000000	151
13.6630000000	147
13.6930000000	157
13.7230000000	146
13.7530000000	142
13.7830000000	141
13.8130000000	135
13.8430000000	143
13.8730000000	135
13.9030000000	136
13.9330000000	142
13.9630000000	145
13.9930000000	163
14.0230000000	153
14.0530000000	142
14.0830000000	158
14.1130000000	137
14.1430000000	126
14.1730000000	134
14.2030000000	149
14.2330000000	129
14.2630000000	133
14.2930000000	129
14.3230000000	153
14.3530000000	153
14.3830000000	155
14.4130000000	144
14.4430000000	148
14.4730000000	142
14.5030000000	144
14.5330000000	138
14.5630000000	148
14.5930000000	166
14.6230000000	150
14.6530000000	155
14.6830000000	150
14.7130000000	137
14.7430000000	147
14.7730000000	142
14.8030000000	152
14.8330000000	165
14.8630000000	135
14.8930000000	133
14.9230000000	152
14.9530000000	147
14.9830000000	156
15.0130000000	179
15.0430000000	175
15.0730000000	133
15.1030000000	162
15.1330000000	140
15.1630000000	145
15.1930000000	159
15.2230000000	146
15.2530000000	162
15.2830000000	165
15.3130000000	149
15.3430000000	151
15.3730000000	146
15.4030000000	158
15.4330000000	154
15.4630000000	175
15.4930000000	161
15.5230000000	136
15.5530000000	147
15.5830000000	147
15.6130000000	156
15.6430000000	139
15.6730000000	172
15.7030000000	166
15.7330000000	164
15.7630000000	173
15.7930000000	162
15.8230000000	145
15.8530000000	153
15.8830000000	126
15.9130000000	162
15.9430000000	150
15.9730000000	128
16.0030000000	150
16.0330000000	136
16.0630000000	136
16.0930000000	123
16.1230000000	144
16.1530000000	123
16.1830000000	138
16.2130000000	165
16.2430000000	116
16.2730000000	139
16.3030000000	146
16.3330000000	145
16.3630000000	135
16.3930000000	164
16.4230000000	147
16.4530000000	152
16.4830000000	139
16.5130000000	119
16.5430000000	190
16.5730000000	166
16.6030000000	148
16.6330000000	145
16.6630000000	127
16.6930000000	133
16.7230000000	156
16.7530000000	145
16.7830000000	118
16.8130000000	125
16.8430000000	151
16.8730000000	147
16.9030000000	145
16.9330000000	140
16.9630000000	133
16.9930000000	150
17.0230000000	149
17.0530000000	154
17.0830000000	153
17.1130000000	153
17.1430000000	151
17.1730000000	143
17.2030000000	143
17.2330000000	136
17.2630000000	139
17.2930000000	145
17.3230000000	164
17.3530000000	153
17.3830000000	134
17.4130000000	138
17.4430000000	134
17.4730000000	145
17.5030000000	174
17.5330000000	147
17.5630000000	157
17.5930000000	130
17.6230000000	129
17.6530000000	152
17.6830000000	153
17.7130000000	149
17.7430000000	143
17.7730000000	157
17.8030000000	159
17.8330000000	144
17.8630000000	136
17.8930000000	135
17.9230000000	155
17.9530000000	159
17.9830000000	156
18.0130000000	147
18.0430000000	129
18.0730000000	152
18.1030000000	148
18.1330000000	162
18.1630000000	140
18.1930000000	151
18.2230000000	141
18.2530000000	133
18.2830000000	144
18.3130000000	137
18.3430000000	134
18.3730000000	125
18.4030000000	133
18.4330000000	126
18.4630000000	145
18.4930000000	155
18.5230000000	147
18.5530000000	153
18.5830000000	152
18.6130000000	120
18.6430000000	141
18.6730000000	146
18.7030000000	158
18.7330000000	131
18.7630000000	137
18.7930000000	151
18.8230000000	140
18.8530000000	148
18.8830000000	129
18.9130000000	143
18.9430000000	144
18.9730000000	154
19.0030000000	132
19.0330000000	136
19.0630000000	143
19.0930000000	150
19.1230000000	160
19.1530000000	146
19.1830000000	161
19.2130000000	152
19.2430000000	142
19.2730000000	165
19.3030000000	156
19.3330000000	139
19.3630000000	161
19.3930000000	172
19.4230000000	183
19.4530000000	210
19.4830000000	241
19.5130000000	267
19.5430000000	306
19.5730000000	342
19.6030000000	393
19.6330000000	372
19.6630000000	335
19.6930000000	226
19.7230000000	189
19.7530000000	180
19.7830000000	170
19.8130000000	157
19.8430000000	155
19.8730000000	153
19.9030000000	139
19.9330000000	139
19.9630000000	162
19.9930000000	160
20.0230000000	116
20.0530000000	156
20.0830000000	148
20.1130000000	149
20.1430000000	147
20.1730000000	131
20.2030000000	158
20.2330000000	155
20.2630000000	143
20.2930000000	156
20.3230000000	153
20.3530000000	157
20.3830000000	140
20.4130000000	162
20.4430000000	156
20.4730000000	155
20.5030000000	174
20.5330000000	168
20.5630000000	151
20.5930000000	123
20.6230000000	147
20.6530000000	143
20.6830000000	155
20.7130000000	153
20.7430000000	164
20.7730000000	166
20.8030000000	151
20.8330000000	145
20.8630000000	148
20.8930000000	159
20.9230000000	170
20.9530000000	179
20.9830000000	132
21.0130000000	168
21.0430000000	136
21.0730000000	125
21.1030000000	149
21.1330000000	161
21.1630000000	157
21.1930000000	147
21.2230000000	180
21.2530000000	153
21.2830000000	140
21.3130000000	138
21.3430000000	166
21.3730000000	151
21.4030000000	158
21.4330000000	149
21.4630000000	156
21.4930000000	160
21.5230000000	155
21.5530000000	168
21.5830000000	180
21.6130000000	163
21.6430000000	159
21.6730000000	150
21.7030000000	163
21.7330000000	156
21.7630000000	130
21.7930000000	163
21.8230000000	161
21.8530000000	144
21.8830000000	140
21.9130000000	157
21.9430000000	153
21.9730000000	151
22.0030000000	138
22.0330000000	145
22.0630000000	169
22.0930000000	168
22.1230000000	170
22.1530000000	156
22.1830000000	167
22.2130000000	158
22.2430000000	174
22.2730000000	171
22.3030000000	169
22.3330000000	157
22.3630000000	180
22.3930000000	182
22.4230000000	165
22.4530000000	176
22.4830000000	170
22.5130000000	156
22.5430000000	161
22.5730000000	178
22.6030000000	193
22.6330000000	198
22.6630000000	199
22.6930000000	210
22.7230000000	225
22.7530000000	222
22.7830000000	236
22.8130000000	225
22.8430000000	215
22.8730000000	178
22.9030000000	169
22.9330000000	173
22.9630000000	167
22.9930000000	150
23.0230000000	183
23.0530000000	188
23.0830000000	177
23.1130000000	168
23.1430000000	197
23.1730000000	139
23.2030000000	172
23.2330000000	161
23.2630000000	156
23.2930000000	160
23.3230000000	174
23.3530000000	160
23.3830000000	167
23.4130000000	162
23.4430000000	175
23.4730000000	180
23.5030000000	169
23.5330000000	181
23.5630000000	154
23.5930000000	166
23.6230000000	167
23.6530000000	158
23.6830000000	140
23.7130000000	185
23.7430000000	163
23.7730000000	165
23.8030000000	160
23.8330000000	138
23.8630000000	163
23.8930000000	186
23.9230000000	166
23.9530000000	163
23.9830000000	169
24.0130000000	159
24.0430000000	166
24.0730000000	166
24.1030000000	161
24.1330000000	184
24.1630000000	166
24.1930000000	162
24.2230000000	160
24.2530000000	171
24.2830000000	160
24.3130000000	167
24.3430000000	202
24.3730000000	160
24.4030000000	167
24.4330000000	152
24.4630000000	144
24.4930000000	160
24.5230000000	184
24.5530000000	165
24.5830000000	158
24.6130000000	160
24.6430000000	173
24.6730000000	160
24.7030000000	174
24.7330000000	138
24.7630000000	154
24.7930000000	190
24.8230000000	168
24.8530000000	171
24.8830000000	157
24.9130000000	177
24.9430000000	167
24.9730000000	157
25.0030000000	148
25.0330000000	167
25.0630000000	163
25.0930000000	162
25.1230000000	167
25.1530000000	178
25.1830000000	170
25.2130000000	159
25.2430000000	148
25.2730000000	157
25.3030000000	154
25.3330000000	142
25.3630000000	172
25.3930000000	171
25.4230000000	169
25.4530000000	166
25.4830000000	165
25.5130000000	193
25.5430000000	166
25.5730000000	170
25.6030000000	170
25.6330000000	175
25.6630000000	164
25.6930000000	151
25.7230000000	161
25.7530000000	169
25.7830000000	189
25.8130000000	160
25.8430000000	152
25.8730000000	156
25.9030000000	148
25.9330000000	152
25.9630000000	184
25.9930000000	158
26.0230000000	172
26.0530000000	158
26.0830000000	167
26.1130000000	169
26.1430000000	170
26.1730000000	163
26.2030000000	192
26.2330000000	240
26.2630000000	245
26.2930000000	329
26.3230000000	425
26.3530000000	548
26.3830000000	665
26.4130000000	892
26.4430000000	1041
26.4730000000	977
26.5030000000	778
26.5330000000	573
26.5630000000	414
26.5930000000	301
26.6230000000	253
26.6530000000	225
26.6830000000	200
26.7130000000	175
26.7430000000	187
26.7730000000	207
26.8030000000	190
26.8330000000	178
26.8630000000	184
26.8930000000	178
26.9230000000	153
26.9530000000	146
26.9830000000	148
27.0130000000	166
27.0430000000	155
27.0730000000	139
27.1030000000	162
27.1330000000	157
27.1630000000	160
27.1930000000	173
27.2230000000	143
27.2530000000	146
27.2830000000	158
27.3130000000	147
27.3430000000	154
27.3730000000	167
27.4030000000	139
27.4330000000	164
27.4630000000	151
27.4930000000	144
27.5230000000	166
27.5530000000	134
27.5830000000	152
27.6130000000	145
27.6430000000	150
27.6730000000	160
27.7030000000	142
27.7330000000	165
27.7630000000	135
27.7930000000	126
27.8230000000	165
27.8530000000	141
27.8830000000	138
27.9130000000	141
27.9430000000	131
27.9730000000	147
28.0030000000	148
28.0330000000	140
28.0630000000	142
28.0930000000	140
28.1230000000	170
28.1530000000	154
28.1830000000	166
28.2130000000	136
28.2430000000	150
28.2730000000	132
28.3030000000	178
28.3330000000	170
28.3630000000	144
28.3930000000	143
28.4230000000	139
28.4530000000	138
28.4830000000	151
28.5130000000	141
28.5430000000	166
28.5730000000	170
28.6030000000	134
28.6330000000	138
28.6630000000	156
28.6930000000	148
28.7230000000	154
28.7530000000	154
28.7830000000	147
28.8130000000	170
28.8430000000	154
28.8730000000	144
28.9030000000	165
28.9330000000	137
28.9630000000	175
28.9930000000	147
29.0230000000	139
29.0530000000	126
29.0830000000	145
29.1130000000	129
29.1430000000	130
29.1730000000	133
29.2030000000	130
29.2330000000	145
29.2630000000	118
29.2930000000	146
29.3230000000	136
29.3530000000	124
29.3830000000	110
29.4130000000	121
29.4430000000	129
29.4730000000	140
29.5030000000	148
29.5330000000	135
29.5630000000	124
29.5930000000	133
29.6230000000	134
29.6530000000	131
29.6830000000	145
29.7130000000	133
29.7430000000	116
29.7730000000	148
29.8030000000	126
29.8330000000	143
29.8630000000	139
29.8930000000	134
29.9230000000	142
29.9530000000	114
29.9830000000	146
30.0130000000	151
30.0430000000	140
30.0730000000	142
30.1030000000	152
30.1330000000	148
30.1630000000	188
30.1930000000	188
30.2230000000	234
30.2530000000	276
30.2830000000	368
30.3130000000	570
30.3430000000	815
30.3730000000	1183
30.4030000000	1826
30.4330000000	2333
30.4630000000	2779
30.4930000000	2598
30.5230000000	2067
30.5530000000	1408
30.5830000000	962
30.6130000000	659
30.6430000000	455
30.6730000000	308
30.7030000000	236
30.7330000000	196
30.7630000000	177
30.7930000000	153
30.8230000000	141
30.8530000000	156
30.8830000000	158
30.9130000000	140
30.9430000000	166
30.9730000000	146
31.0030000000	170
31.0330000000	123
31.0630000000	108
31.0930000000	137
31.1230000000	140
31.1530000000	129
31.1830000000	137
31.2130000000	124
31.2430000000	133
31.2730000000	132
31.3030000000	114
31.3330000000	151
31.3630000000	143
31.3930000000	131
31.4230000000	134
31.4530000000	146
31.4830000000	134
31.5130000000	121
31.5430000000	136
31.5730000000	138
31.6030000000	156
31.6330000000	159
31.6630000000	186
31.6930000000	210
31.7230000000	242
31.7530000000	374
31.7830000000	481
31.8130000000	673
31.8430000000	1048
31.8730000000	1431
31.9030000000	1644
31.9330000000	1593
31.9630000000	1356
31.9930000000	1092
32.0230000000	839
32.0530000000	779
32.0830000000	776
32.1130000000	850
32.1430000000	1025
32.1730000000	1146
32.2030000000	1127
32.2330000000	989
32.2630000000	760
32.2930000000	557
32.3230000000	383
32.3530000000	269
32.3830000000	188
32.4130000000	157
32.4430000000	146
32.4730000000	130
32.5030000000	115
32.5330000000	123
32.5630000000	116
32.5930000000	120
32.6230000000	105
32.6530000000	129
32.6830000000	113
32.7130000000	107
32.7430000000	107
32.7730000000	83
32.8030000000	103
32.8330000000	115
32.8630000000	110
32.8930000000	108
32.9230000000	100
32.9530000000	104
32.9830000000	121
33.0130000000	114
33.0430000000	120
33.0730000000	112
33.1030000000	105
33.1330000000	122
33.1630000000	104
33.1930000000	101
33.2230000000	116
33.2530000000	130
33.2830000000	120
33.3130000000	117
33.3430000000	115
33.3730000000	136
33.4030000000	113
33.4330000000	126
33.4630000000	117
33.4930000000	126
33.5230000000	113
33.5530000000	105
33.5830000000	101
33.6130000000	104
33.6430000000	107
33.6730000000	100
33.7030000000	105
33.7330000000	120
33.7630000000	89
33.7930000000	95
33.8230000000	97
33.8530000000	90
33.8830000000	103
33.9130000000	119
33.9430000000	110
33.9730000000	94
34.0030000000	100
34.0330000000	105
34.0630000000	110
34.0930000000	82
34.1230000000	100
34.1530000000	95
34.1830000000	95
34.2130000000	96
34.2430000000	93
34.2730000000	102
34.3030000000	99
34.3330000000	101
34.3630000000	103
34.3930000000	112
34.4230000000	93
34.4530000000	112
34.4830000000	104
34.5130000000	87
34.5430000000	97
34.5730000000	93
34.6030000000	102
34.6330000000	110
34.6630000000	99
34.6930000000	112
34.7230000000	100
34.7530000000	104
34.7830000000	101
34.8130000000	100
34.8430000000	96
34.8730000000	102
34.9030000000	108
34.9330000000	98
34.9630000000	98
34.9930000000	86
35.0230000000	97
35.0530000000	109
35.0830000000	101
35.1130000000	111
35.1430000000	106
35.1730000000	103
35.2030000000	115
35.2330000000	130
35.2630000000	141
35.2930000000	154
35.3230000000	203
35.3530000000	236
35.3830000000	249
35.4130000000	256
35.4430000000	262
35.4730000000	227
35.5030000000	172
35.5330000000	159
35.5630000000	126
35.5930000000	121
35.6230000000	109
35.6530000000	117
35.6830000000	112
35.7130000000	99
35.7430000000	103
35.7730000000	89
35.8030000000	95
35.8330000000	110
35.8630000000	106
35.8930000000	87
35.9230000000	99
35.9530000000	103
35.9830000000	90
36.0130000000	99
36.0430000000	88
36.0730000000	88
36.1030000000	92
36.1330000000	90
36.1630000000	87
36.1930000000	113
36.2230000000	100
36.2530000000	100
36.2830000000	92
36.3130000000	93
36.3430000000	91
36.3730000000	83
36.4030000000	101
36.4330000000	116
36.4630000000	112
36.4930000000	123
36.5230000000	169
36.5530000000	192
36.5830000000	274
36.6130000000	357
36.6430000000	391
36.6730000000	433
36.7030000000	438
36.7330000000	373
36.7630000000	286
36.7930000000	198
36.8230000000	148
36.8530000000	136
36.8830000000	127
36.9130000000	102
36.9430000000	88
36.9730000000	102
37.0030000000	78
37.0330000000	102
37.0630000000	99
37.0930000000	91
37.1230000000	97
37.1530000000	85
37.1830000000	86
37.2130000000	91
37.2430000000	86
37.2730000000	83
37.3030000000	92
37.3330000000	90
37.3630000000	86
37.3930000000	99
37.4230000000	87
37.4530000000	82
37.4830000000	80
37.5130000000	89
37.5430000000	80
37.5730000000	75
37.6030000000	85
37.6330000000	101
37.6630000000	108
37.6930000000	81
37.7230000000	85
37.7530000000	89
37.7830000000	104
37.8130000000	95
37.8430000000	85
37.8730000000	87
37.9030000000	79
37.9330000000	85
37.9630000000	91
37.9930000000	89
38.0230000000	89
38.0530000000	78
38.0830000000	96
38.1130000000	98
38.1430000000	85
38.1730000000	80
38.2030000000	97
38.2330000000	83
38.2630000000	77
38.2930000000	87
38.3230000000	87
38.3530000000	86
38.3830000000	95
38.4130000000	93
38.4430000000	68
38.4730000000	85
38.5030000000	95
38.5330000000	90
38.5630000000	78
38.5930000000	83
38.6230000000	92
38.6530000000	99
38.6830000000	93
38.7130000000	91
38.7430000000	83
38.7730000000	75
38.8030000000	102
38.8330000000	107
38.8630000000	92
38.8930000000	90
38.9230000000	84
38.9530000000	85
38.9830000000	88
39.0130000000	83
39.0430000000	89
39.0730000000	101
39.1030000000	93
39.1330000000	87
39.1630000000	77
39.1930000000	88
39.2230000000	85
39.2530000000	89
39.2830000000	99
39.3130000000	96
39.3430000000	86
39.3730000000	94
39.4030000000	93
39.4330000000	104
39.4630000000	129
39.4930000000	110
39.5230000000	126
39.5530000000	130
39.5830000000	177
39.6130000000	235
39.6430000000	298
39.6730000000	442
39.7030000000	593
39.7330000000	834
39.7630000000	1082
39.7930000000	1209
39.8230000000	1193
39.8530000000	1031
39.8830000000	811
39.9130000000	557
39.9430000000	336
39.9730000000	236
40.0030000000	188
40.0330000000	167
40.0630000000	101
40.0930000000	98
40.1230000000	89
40.1530000000	100
40.1830000000	89
40.2130000000	98
40.2430000000	75
40.2730000000	89
40.3030000000	89
40.3330000000	73
40.3630000000	76
40.3930000000	82
40.4230000000	80
40.4530000000	84
40.4830000000	93
40.5130000000	86
40.5430000000	107
40.5730000000	76
40.6030000000	75
40.6330000000	100
40.6630000000	81
40.6930000000	71
40.7230000000	81
40.7530000000	82
40.7830000000	92
40.8130000000	104
40.8430000000	92
40.8730000000	81
40.9030000000	78
40.9330000000	83
40.9630000000	106
40.9930000000	91
41.0230000000	98
41.0530000000	91
41.0830000000	87
41.1130000000	88
41.1430000000	92
41.1730000000	95
41.2030000000	82
41.2330000000	76
41.2630000000	98
41.2930000000	84
41.3230000000	79
41.3530000000	83
41.3830000000	87
41.4130000000	86
41.4430000000	80
41.4730000000	74
41.5030000000	82
41.5330000000	81
41.5630000000	90
41.5930000000	87
41.6230000000	74
41.6530000000	76
41.6830000000	76
41.7130000000	88
41.7430000000	92
41.7730000000	78
41.8030000000	87
41.8330000000	82
41.8630000000	79
41.8930000000	77
41.9230000000	73
41.9530000000	84
41.9830000000	90
42.0130000000	87
42.0430000000	80
42.0730000000	75
42.1030000000	86
42.1330000000	89
42.1630000000	83
42.1930000000	82
42.2230000000	85
42.2530000000	80
42.2830000000	79
42.3130000000	82
42.3430000000	68
42.3730000000	74
42.4030000000	93
42.4330000000	91
42.4630000000	78
42.4930000000	66
42.5230000000	74
42.5530000000	84
42.5830000000	83
42.6130000000	74
42.6430000000	79
42.6730000000	91
42.7030000000	91
42.7330000000	87
42.7630000000	72
42.7930000000	74
42.8230000000	95
42.8530000000	92
42.8830000000	94
42.9130000000	79
42.9430000000	80
42.9730000000	98
43.0030000000	114
43.0330000000	144
43.0630000000	179
43.0930000000	202
43.1230000000	278
43.1530000000	429
43.1830000000	630
43.2130000000	885
43.2430000000	1136
43.2730000000	1288
43.3030000000	1298
43.3330000000	1137
43.3630000000	933
43.3930000000	698
43.4230000000	485
43.4530000000	315
43.4830000000	223
43.5130000000	149
43.5430000000	143
43.5730000000	108
43.6030000000	100
43.6330000000	98
43.6630000000	89
43.6930000000	100
43.7230000000	119
43.7530000000	120
43.7830000000	120
43.8130000000	111
43.8430000000	103
43.8730000000	107
43.9030000000	99
43.9330000000	87
43.9630000000	88
43.9930000000	76
44.0230000000	77
44.0530000000	87
44.0830000000	78
44.1130000000	75
44.1430000000	68
44.1730000000	79
44.2030000000	74
44.2330000000	72
44.2630000000	71
44.2930000000	71
44.3230000000	80
44.3530000000	77
44.3830000000	73
44.4130000000	76
44.4430000000	85
44.4730000000	67
44.5030000000	92
44.5330000000	79
44.5630000000	70
44.5930000000	63
44.6230000000	71
44.6530000000	73
44.6830000000	85
44.7130000000	70
44.7430000000	57
44.7730000000	79
44.8030000000	83
44.8330000000	90
44.8630000000	97
44.8930000000	112
44.9230000000	110
44.9530000000	199
44.9830000000	227
45.0130000000	271
45.0430000000	387
45.0730000000	554
45.1030000000	688
45.1330000000	776
45.1630000000	754
45.1930000000	695
45.2230000000	566
45.2530000000	432
45.2830000000	287
45.3130000000	215
45.3430000000	150
45.3730000000	124
45.4030000000	105
45.4330000000	85
45.4630000000	72
45.4930000000	76
45.5230000000	86
45.5530000000	69
45.5830000000	82
45.6130000000	80
45.6430000000	67
45.6730000000	74
45.7030000000	73
45.7330000000	70
45.7630000000	78
45.7930000000	83
45.8230000000	70
45.8530000000	71
45.8830000000	71
45.9130000000	74
45.9430000000	84
45.9730000000	98
46.0030000000	114
46.0330000000	133
46.0630000000	177
46.0930000000	207
46.1230000000	230
46.1530000000	192
46.1830000000	179
46.2130000000	152
46.2430000000	143
46.2730000000	104
46.3030000000	76
46.3330000000	80
46.3630000000	96
46.3930000000	111
46.4230000000	88
46.4530000000	99
46.4830000000	100
46.5130000000	113
46.5430000000	98
46.5730000000	107
46.6030000000	93
46.6330000000	87
46.6630000000	81
46.6930000000	72
46.7230000000	82
46.7530000000	54
46.7830000000	98
46.8130000000	81
46.8430000000	86
46.8730000000	73
46.9030000000	104
46.9330000000	114
46.9630000000	146
46.9930000000	209
47.0230000000	269
47.0530000000	252
47.0830000000	260
47.1130000000	252
47.1430000000	217
47.1730000000	193
47.2030000000	155
47.2330000000	93
47.2630000000	89
47.2930000000	75
47.3230000000	62
47.3530000000	79
47.3830000000	60
47.4130000000	78
47.4430000000	60
47.4730000000	83
47.5030000000	82
47.5330000000	87
47.5630000000	86
47.5930000000	86
47.6230000000	82
47.6530000000	95
47.6830000000	80
47.7130000000	69
47.7430000000	70
47.7730000000	72
47.8030000000	76
47.8330000000	75
47.8630000000	64
47.8930000000	53
47.9230000000	65
47.9530000000	70
47.9830000000	50
48.0130000000	79
48.0430000000	68
48.0730000000	49
48.1030000000	44
48.1330000000	57
48.1630000000	54
48.1930000000	62
48.2230000000	65
48.2530000000	50
48.2830000000	57
48.3130000000	55
48.3430000000	56
48.3730000000	55
48.4030000000	58
48.4330000000	73
48.4630000000	54
48.4930000000	59
48.5230000000	61
48.5530000000	64
48.5830000000	66
48.6130000000	52
48.6430000000	56
48.6730000000	69
48.7030000000	56
48.7330000000	56
48.7630000000	47
48.7930000000	47
48.8230000000	62
48.8530000000	58
48.8830000000	53
48.9130000000	57
48.9430000000	56
48.9730000000	54
49.0030000000	58
49.0330000000	55
49.0630000000	49
49.0930000000	71
49.1230000000	40
49.1530000000	40
49.1830000000	73
49.2130000000	59
49.2430000000	61
49.2730000000	52
49.3030000000	51
49.3330000000	46
49.3630000000	60
49.3930000000	55
49.4230000000	46
49.4530000000	59
49.4830000000	60
49.5130000000	64
49.5430000000	48
49.5730000000	34
49.6030000000	54
49.6330000000	58
49.6630000000	55
49.6930000000	54
49.7230000000	45
49.7530000000	51
49.7830000000	55
49.8130000000	51
49.8430000000	55
49.8730000000	69
49.9030000000	52
49.9330000000	50
49.9630000000	67
49.9930000000	55
50.0230000000	55
50.0530000000	46
50.0830000000	55
50.1130000000	65
50.1430000000	41
50.1730000000	63
50.2030000000	66
50.2330000000	68
50.2630000000	60
50.2930000000	50
50.3230000000	48
50.3530000000	50
50.3830000000	61
50.4130000000	54
50.4430000000	60
50.4730000000	54
50.5030000000	63
50.5330000000	82
50.5630000000	85
50.5930000000	79
50.6230000000	108
50.6530000000	105
50.6830000000	71
50.7130000000	73
50.7430000000	84
50.7730000000	72
50.8030000000	64
50.8330000000	66
50.8630000000	51
50.8930000000	56
50.9230000000	53
50.9530000000	41
50.9830000000	51
51.0130000000	61
51.0430000000	47
51.0730000000	57
51.1030000000	58
51.1330000000	54
51.1630000000	48
51.1930000000	51
51.2230000000	54
51.2530000000	63
51.2830000000	59
51.3130000000	41
51.3430000000	54
51.3730000000	58
51.4030000000	43
51.4330000000	51
51.4630000000	55
51.4930000000	57
51.5230000000	52
51.5530000000	50
51.5830000000	50
51.6130000000	52
51.6430000000	47
51.6730000000	46
51.7030000000	51
51.7330000000	49
51.7630000000	44
51.7930000000	57
51.8230000000	49
51.8530000000	47
51.8830000000	45
51.9130000000	50
51.9430000000	47
51.9730000000	44
52.0030000000	48
52.0330000000	51
52.0630000000	46
52.0930000000	66
52.1230000000	67
52.1530000000	74
52.1830000000	76
52.2130000000	105
52.2430000000	84
52.2730000000	79
52.3030000000	77
52.3330000000	83
52.3630000000	54
52.3930000000	65
52.4230000000	68
52.4530000000	46
52.4830000000	62
52.5130000000	46
52.5430000000	70
52.5730000000	54
52.6030000000	54
52.6330000000	50
52.6630000000	46
52.6930000000	47
52.7230000000	42
52.7530000000	48
52.7830000000	43
52.8130000000	49
52.8430000000	41
52.8730000000	45
52.9030000000	68
52.9330000000	53
52.9630000000	58
52.9930000000	52
53.0230000000	49
53.0530000000	52
53.0830000000	45
53.1130000000	52
53.1430000000	46
53.1730000000	56
53.2030000000	52
53.2330000000	52
53.2630000000	58
53.2930000000	50
53.3230000000	65
53.3530000000	49
53.3830000000	43
53.4130000000	52
53.4430000000	51
53.4730000000	45
53.5030000000	34
53.5330000000	47
53.5630000000	39
53.5930000000	46
53.6230000000	63
53.6530000000	51
53.6830000000	41
53.7130000000	49
53.7430000000	53
53.7730000000	49
53.8030000000	64
53.8330000000	60
53.8630000000	68
53.8930000000	90
53.9230000000	95
53.9530000000	115
53.9830000000	117
54.0130000000	106
54.0430000000	112
54.0730000000	102
54.1030000000	100
54.1330000000	78
54.1630000000	79
54.1930000000	84
54.2230000000	56
54.2530000000	44
54.2830000000	61
54.3130000000	57
54.3430000000	51
54.3730000000	52
54.4030000000	57
54.4330000000	60
54.4630000000	53
54.4930000000	55
54.5230000000	57
54.5530000000	47
54.5830000000	46
54.6130000000	48
54.6430000000	52
54.6730000000	52
54.7030000000	60
54.7330000000	44
54.7630000000	48
54.7930000000	44
54.8230000000	44
54.8530000000	42
54.8830000000	48
54.9130000000	49
54.9430000000	54
54.9730000000	55
55.0030000000	83
55.0330000000	89
55.0630000000	113
55.0930000000	120
55.1230000000	109
55.1530000000	111
55.1830000000	101
55.2130000000	92
55.2430000000	111
55.2730000000	84
55.3030000000	75
55.3330000000	65
55.3630000000	77
55.3930000000	93
55.4230000000	95
55.4530000000	99
55.4830000000	139
55.5130000000	134
55.5430000000	131
55.5730000000	115
55.6030000000	109
55.6330000000	110
55.6630000000	115
55.6930000000	71
55.7230000000	73
55.7530000000	57
55.7830000000	44
55.8130000000	39
55.8430000000	44
55.8730000000	52
55.9030000000	49
55.9330000000	50
55.9630000000	48
55.9930000000	45
56.0230000000	35
56.0530000000	53
56.0830000000	57
56.1130000000	45
56.1430000000	45
56.1730000000	47
56.2030000000	49
56.2330000000	48
56.2630000000	54
56.2930000000	50
56.3230000000	53
56.3530000000	59
56.3830000000	49
56.4130000000	39
56.4430000000	44
56.4730000000	45
56.5030000000	45
56.5330000000	42
56.5630000000	45
56.5930000000	45
56.6230000000	50
56.6530000000	49
56.6830000000	38
56.7130000000	44
56.7430000000	45
56.7730000000	41
56.8030000000	43
56.8330000000	37
56.8630000000	45
56.8930000000	47
56.9230000000	54
56.9530000000	48
56.9830000000	48
57.0130000000	42
57.0430000000	52
57.0730000000	44
57.1030000000	31
57.1330000000	44
57.1630000000	45
57.1930000000	56
57.2230000000	53
57.2530000000	47
57.2830000000	43
57.3130000000	48
57.3430000000	48
57.3730000000	51
57.4030000000	49
57.4330000000	46
57.4630000000	39
57.4930000000	54
57.5230000000	49
57.5530000000	50
57.5830000000	45
57.6130000000	40
57.6430000000	45
57.6730000000	42
57.7030000000	41
57.7330000000	42
57.7630000000	62
57.7930000000	42
57.8230000000	44
57.8530000000	49
57.8830000000	47
57.9130000000	47
57.9430000000	43
57.9730000000	48
58.0030000000	48
58.0330000000	43
58.0630000000	58
58.0930000000	34
58.1230000000	49
58.1530000000	48
58.1830000000	48
58.2130000000	43
58.2430000000	43
58.2730000000	50
58.3030000000	52
58.3330000000	41
58.3630000000	47
58.3930000000	43
58.4230000000	40
58.4530000000	47
58.4830000000	45
58.5130000000	34
58.5430000000	46
58.5730000000	47
58.6030000000	40
58.6330000000	51
58.6630000000	50
58.6930000000	47
58.7230000000	36
58.7530000000	36
58.7830000000	39
58.8130000000	41
58.8430000000	33
58.8730000000	45
58.9030000000	48
58.9330000000	45
58.9630000000	52
58.9930000000	37
59.0230000000	39
59.0530000000	39
59.0830000000	36
59.1130000000	27
59.1430000000	46
59.1730000000	35
59.2030000000	32
59.2330000000	42
59.2630000000	34
59.2930000000	48
59.3230000000	37
59.3530000000	47
59.3830000000	48
59.4130000000	36
59.4430000000	53
59.4730000000	54
59.5030000000	37
59.5330000000	53
59.5630000000	54
59.5930000000	47
59.6230000000	34
59.6530000000	47
59.6830000000	55
59.7130000000	58
59.7430000000	42
59.7730000000	57
59.8030000000	47
59.8330000000	45
59.8630000000	47
59.8930000000	45
59.9230000000	34
59.9530000000	43
59.9830000000	55
60.0130000000	44
60.0430000000	56
60.0730000000	38
60.1030000000	46
60.1330000000	56
60.1630000000	53
60.1930000000	51
60.2230000000	60
60.2530000000	75
60.2830000000	84
60.3130000000	117
60.3430000000	127
60.3730000000	140
60.4030000000	130
60.4330000000	116
60.4630000000	104
60.4930000000	86
60.5230000000	94
60.5530000000	77
60.5830000000	57
60.6130000000	57
60.6430000000	44
60.6730000000	54
60.7030000000	44
60.7330000000	50
60.7630000000	43
60.7930000000	46
60.8230000000	37
60.8530000000	40
60.8830000000	55
60.9130000000	32
60.9430000000	48
60.9730000000	43
61.0030000000	44
61.0330000000	41
61.0630000000	41
61.0930000000	37
61.1230000000	47
61.1530000000	49
61.1830000000	50
61.2130000000	38
61.2430000000	61
61.2730000000	58
61.3030000000	49
61.3330000000	54
61.3630000000	71
61.3930000000	68
61.4230000000	66
61.4530000000	79
61.4830000000	73
61.5130000000	87
61.5430000000	114
61.5730000000	129
61.6030000000	110
61.6330000000	121
61.6630000000	90
61.6930000000	109
61.7230000000	92
61.7530000000	90
61.7830000000	95
61.8130000000	57
61.8430000000	54
61.8730000000	46
61.9030000000	48
61.9330000000	50
61.9630000000	45
61.9930000000	50
62.0230000000	47
62.0530000000	35
62.0830000000	41
62.1130000000	32
62.1430000000	42
62.1730000000	34
62.2030000000	47
62.2330000000	42
62.2630000000	44
62.2930000000	42
62.3230000000	46
62.3530000000	31
62.3830000000	42
62.4130000000	46
62.4430000000	30
62.4730000000	42
62.5030000000	31
62.5330000000	42
62.5630000000	47
62.5930000000	41
62.6230000000	34
62.6530000000	34
62.6830000000	36
62.7130000000	37
62.7430000000	43
62.7730000000	44
62.8030000000	46
62.8330000000	42
62.8630000000	41
62.8930000000	33
62.9230000000	39
62.9530000000	47
62.9830000000	50
63.0130000000	42
63.0430000000	45
63.0730000000	38
63.1030000000	33
63.1330000000	41
63.1630000000	47
63.1930000000	39
63.2230000000	46
63.2530000000	53
63.2830000000	56
63.3130000000	47
63.3430000000	43
63.3730000000	58
63.4030000000	60
63.4330000000	54
63.4630000000	43
63.4930000000	45
63.5230000000	47
63.5530000000	46
63.5830000000	33
63.6130000000	43
63.6430000000	48
63.6730000000	51
63.7030000000	37
63.7330000000	33
63.7630000000	41
63.7930000000	43
63.8230000000	57
63.8530000000	34
63.8830000000	42
63.9130000000	36
63.9430000000	43
63.9730000000	37
64.0030000000	49
64.0330000000	42
64.0630000000	36
64.0930000000	45
64.1230000000	29
64.1530000000	48
64.1830000000	35
64.2130000000	39
64.2430000000	35
64.2730000000	32
64.3030000000	45
64.3330000000	42
64.3630000000	45
64.3930000000	43
64.4230000000	54
64.4530000000	48
64.4830000000	54
64.5130000000	46
64.5430000000	31
64.5730000000	46
64.6030000000	54
64.6330000000	47
64.6630000000	51
64.6930000000	51
64.7230000000	54
64.7530000000	39
64.7830000000	48
64.8130000000	57
64.8430000000	57
64.8730000000	42
64.9030000000	41
64.9330000000	58
64.9630000000	50
64.9930000000	35
65.0230000000	47
65.0530000000	57
65.0830000000	39
65.1130000000	48
65.1430000000	53
65.1730000000	43
65.2030000000	40
65.2330000000	43
65.2630000000	48
65.2930000000	50
65.3230000000	41
65.3530000000	45
65.3830000000	44
65.4130000000	47
65.4430000000	39
65.4730000000	35
65.5030000000	41
65.5330000000	34
65.5630000000	34
65.5930000000	38
65.6230000000	35
65.6530000000	44
65.6830000000	42
65.7130000000	39
65.7430000000	34
65.7730000000	52
65.8030000000	52
65.8330000000	49
65.8630000000	47
65.8930000000	44
65.9230000000	38
65.9530000000	31
65.9830000000	52
66.0130000000	40
66.0430000000	48
66.0730000000	55
66.1030000000	51
66.1330000000	48
66.1630000000	48
66.1930000000	59
66.2230000000	62
66.2530000000	77
66.2830000000	129
66.3130000000	147
66.3430000000	163
66.3730000000	178
66.4030000000	158
66.4330000000	166
66.4630000000	153
66.4930000000	126
66.5230000000	109
66.5530000000	108
66.5830000000	92
66.6130000000	68
66.6430000000	72
66.6730000000	68
66.7030000000	63
66.7330000000	62
66.7630000000	64
66.7930000000	47
66.8230000000	57
66.8530000000	54
66.8830000000	46
66.9130000000	55
66.9430000000	46
66.9730000000	52
67.0030000000	46
67.0330000000	30
67.0630000000	35
67.0930000000	39
67.1230000000	39
67.1530000000	44
67.1830000000	43
67.2130000000	35
67.2430000000	39
67.2730000000	45
67.3030000000	37
67.3330000000	40
67.3630000000	33
67.3930000000	51
67.4230000000	30
67.4530000000	37
67.4830000000	48
67.5130000000	40
67.5430000000	37
67.5730000000	43
67.6030000000	46
67.6330000000	32
67.6630000000	25
67.6930000000	39
67.7230000000	38
67.7530000000	48
67.7830000000	45
67.8130000000	46
67.8430000000	47
67.8730000000	41
67.9030000000	48
67.9330000000	36
67.9630000000	36
67.9930000000	56
68.0230000000	38
68.0530000000	35
68.0830000000	36
68.1130000000	50
68.1430000000	40
68.1730000000	39
68.2030000000	49
68.2330000000	36
68.2630000000	32
68.2930000000	38
68.3230000000	46
68.3530000000	43
68.3830000000	36
68.4130000000	37
68.4430000000	37
68.4730000000	35
68.5030000000	34
68.5330000000	45
68.5630000000	29
68.5930000000	49
68.6230000000	36
68.6530000000	50
68.6830000000	37
68.7130000000	34
68.7430000000	41
68.7730000000	43
68.8030000000	40
68.8330000000	38
68.8630000000	38
68.8930000000	41
68.9230000000	40
68.9530000000	43
68.9830000000	44
69.0130000000	47
69.0430000000	38
69.0730000000	46
69.1030000000	35
69.1330000000	39
69.1630000000	37
69.1930000000	35
69.2230000000	37
69.2530000000	57
69.2830000000	35
69.3130000000	52
69.3430000000	48
69.3730000000	49
69.4030000000	54
69.4330000000	55
69.4630000000	46
69.4930000000	50
69.5230000000	45
69.5530000000	43
69.5830000000	38
69.6130000000	47
69.6430000000	49
69.6730000000	47
69.7030000000	54
69.7330000000	38
69.7630000000	43
69.7930000000	49
69.8230000000	40
69.8530000000	54
69.8830000000	36
69.9130000000	43
69.9430000000	56
69.9730000000	41
70.0030000000	43
70.0330000000	41
70.0630000000	34
70.0930000000	48
70.1230000000	32
70.1530000000	47
70.1830000000	47
70.2130000000	37
70.2430000000	43
70.2730000000	43
70.3030000000	22
70.3330000000	33
70.3630000000	37
70.3930000000	41
70.4230000000	31
70.4530000000	43
70.4830000000	45
70.5130000000	45
70.5430000000	45
70.5730000000	43
70.6030000000	38
70.6330000000	30
70.6630000000	42
70.6930000000	45
70.7230000000	40
70.7530000000	43
70.7830000000	47
70.8130000000	37
70.8430000000	34
70.8730000000	32
70.9030000000	44
70.9330000000	47
70.9630000000	46
70.9930000000	38
71.0230000000	34
71.0530000000	42
71.0830000000	42
71.1130000000	50
71.1430000000	46
71.1730000000	35
71.2030000000	39
71.2330000000	43
71.2630000000	41
71.2930000000	44
71.3230000000	36
71.3530000000	38
71.3830000000	30
71.4130000000	44
71.4430000000	41
71.4730000000	50
71.5030000000	40
71.5330000000	49
71.5630000000	42
71.5930000000	40
71.6230000000	37
71.6530000000	46
71.6830000000	41
71.7130000000	32
71.7430000000	39
71.7730000000	37
71.8030000000	43
71.8330000000	37
71.8630000000	48
71.8930000000	41
71.9230000000	44
71.9530000000	42
71.9830000000	37
72.0130000000	53
72.0430000000	53
72.0730000000	65
72.1030000000	51
72.1330000000	58
72.1630000000	53
72.1930000000	55
72.2230000000	47
72.2530000000	52
72.2830000000	49
72.3130000000	56
72.3430000000	47
72.3730000000	55
72.4030000000	62
72.4330000000	78
72.4630000000	77
72.4930000000	116
72.5230000000	105
72.5530000000	109
72.5830000000	85
72.6130000000	94
72.6430000000	91
72.6730000000	102
72.7030000000	79
72.7330000000	90
72.7630000000	71
72.7930000000	94
72.8230000000	61
72.8530000000	80
72.8830000000	89
72.9130000000	93
72.9430000000	132
72.9730000000	150
73.0030000000	163
73.0330000000	156
73.0630000000	153
73.0930000000	112
73.1230000000	141
73.1530000000	113
73.1830000000	108
73.2130000000	109
73.2430000000	91
73.2730000000	74
73.3030000000	58
73.3330000000	58
73.3630000000	56
73.3930000000	53
73.4230000000	55
73.4530000000	48
73.4830000000	49
73.5130000000	37
73.5430000000	46
73.5730000000	46
73.6030000000	49
73.6330000000	50
73.6630000000	43
73.6930000000	39
73.7230000000	35
73.7530000000	42
73.7830000000	46
73.8130000000	31
73.8430000000	41
73.8730000000	43
73.9030000000	42
73.9330000000	49
73.9630000000	42
73.9930000000	35
74.0230000000	42
74.0530000000	40
74.0830000000	38
74.1130000000	47
74.1430000000	29
74.1730000000	49
74.2030000000	38
74.2330000000	34
74.2630000000	33
74.2930000000	33
74.3230000000	44
74.3530000000	39
74.3830000000	50
74.4130000000	44
74.4430000000	43
74.4730000000	45
74.5030000000	34
74.5330000000	47
74.5630000000	45
74.5930000000	38
74.6230000000	42
74.6530000000	45
74.6830000000	42
74.7130000000	39
74.7430000000	41
74.7730000000	44
74.8030000000	44
74.8330000000	59
74.8630000000	59
74.8930000000	57
74.9230000000	51
74.9530000000	58
74.9830000000	53
75.0130000000	47
75.0430000000	54
75.0730000000	49
75.1030000000	42
75.1330000000	49
75.1630000000	46
75.1930000000	57
75.2230000000	53
75.2530000000	60
75.2830000000	44
75.3130000000	39
75.3430000000	50
75.3730000000	57
75.4030000000	46
75.4330000000	36
75.4630000000	48
75.4930000000	43
75.5230000000	37
75.5530000000	39
75.5830000000	41
75.6130000000	40
75.6430000000	48
75.6730000000	39
75.7030000000	42
75.7330000000	42
75.7630000000	44
75.7930000000	47
75.8230000000	43
75.8530000000	38
75.8830000000	40
75.9130000000	43
75.9430000000	42
75.9730000000	31
76.0030000000	45
76.0330000000	50
76.0630000000	45
76.0930000000	45
76.1230000000	43
76.1530000000	40
76.1830000000	42
76.2130000000	49
76.2430000000	54
76.2730000000	41
76.3030000000	31
76.3330000000	43
76.3630000000	35
76.3930000000	38
76.4230000000	37
76.4530000000	38
76.4830000000	54
76.5130000000	34
76.5430000000	40
76.5730000000	39
76.6030000000	37
76.6330000000	33
76.6630000000	48
76.6930000000	37
76.7230000000	42
76.7530000000	40
76.7830000000	39
76.8130000000	30
76.8430000000	40
76.8730000000	31
76.9030000000	38
76.9330000000	28
76.9630000000	32
76.9930000000	41
77.0230000000	37
77.0530000000	34
77.0830000000	35
77.1130000000	40
77.1430000000	37
77.1730000000	45
77.2030000000	31
77.2330000000	36
77.2630000000	52
77.2930000000	50
77.3230000000	31
77.3530000000	49
77.3830000000	40
77.4130000000	41
77.4430000000	44
77.4730000000	42
77.5030000000	56
77.5330000000	55
77.5630000000	71
77.5930000000	73
77.6230000000	67
77.6530000000	69
77.6830000000	67
77.7130000000	64
77.7430000000	76
77.7730000000	54
77.8030000000	64
77.8330000000	61
77.8630000000	47
77.8930000000	53
77.9230000000	50
77.9530000000	45
77.9830000000	43
78.0130000000	55
78.0430000000	42
78.0730000000	52
78.1030000000	49
78.1330000000	33
78.1630000000	47
78.1930000000	43
78.2230000000	50
78.2530000000	47
78.2830000000	38
78.3130000000	52
78.3430000000	35
78.3730000000	36
78.4030000000	31
78.4330000000	30
78.4630000000	34
78.4930000000	45
78.5230000000	51
78.5530000000	43
78.5830000000	52
78.6130000000	36
78.6430000000	45
78.6730000000	68
78.7030000000	57
78.7330000000	47
78.7630000000	56
78.7930000000	47
78.8230000000	48
78.8530000000	61
78.8830000000	41
78.9130000000	38
78.9430000000	50
78.9730000000	53
79.0030000000	44
79.0330000000	40
79.0630000000	48
79.0930000000	47
79.1230000000	45
79.1530000000	45
79.1830000000	36
79.2130000000	49
79.2430000000	39
79.2730000000	32
79.3030000000	41
79.3330000000	37
79.3630000000	50
79.3930000000	31
79.4230000000	36
79.4530000000	55
79.4830000000	40
79.5130000000	34
79.5430000000	40
79.5730000000	31
79.6030000000	42
79.6330000000	33
79.6630000000	35
79.6930000000	50
79.7230000000	37
79.7530000000	52
79.7830000000	47
79.8130000000	45
79.8430000000	51
79.8730000000	50
79.9030000000	42
79.9330000000	30
79.9630000000	40
79.9930000000	48
80.0230000000	48
80.0530000000	50
80.0830000000	44
80.1130000000	50
80.1430000000	55
80.1730000000	44
80.2030000000	44
80.2330000000	43
80.2630000000	40
80.2930000000	32
80.3230000000	33
80.3530000000	39
80.3830000000	44
80.4130000000	40
80.4430000000	34
80.4730000000	37
80.5030000000	45
80.5330000000	31
80.5630000000	40
80.5930000000	40
80.6230000000	34
80.6530000000	51
80.6830000000	37
80.7130000000	55
80.7430000000	58
80.7730000000	57
80.8030000000	49
80.8330000000	55
80.8630000000	69
80.8930000000	46
80.9230000000	54
80.9530000000	62
80.9830000000	33
81.0130000000	49
81.0430000000	46
81.0730000000	47
81.1030000000	48
81.1330000000	35
81.1630000000	38
81.1930000000	36
81.2230000000	33
81.2530000000	41
81.2830000000	31
81.3130000000	48
81.3430000000	43
81.3730000000	42
81.4030000000	49
81.4330000000	45
81.4630000000	36
81.4930000000	38
81.5230000000	36
81.5530000000	36
81.5830000000	44
81.6130000000	51
81.6430000000	36
81.6730000000	46
81.7030000000	31
81.7330000000	42
81.7630000000	37
81.7930000000	46
81.8230000000	43
81.8530000000	40
81.8830000000	42
81.9130000000	39
81.9430000000	33
81.9730000000	33
82.0030000000	36
82.0330000000	40
82.0630000000	34
82.0930000000	32
82.1230000000	32
82.1530000000	39
82.1830000000	34
82.2130000000	40
82.2430000000	40
82.2730000000	39
82.3030000000	34
82.3330000000	36
82.3630000000	42
82.3930000000	44
82.4230000000	42
82.4530000000	35
82.4830000000	29
82.5130000000	37
82.5430000000	41
82.5730000000	32
82.6030000000	43
82.6330000000	40
82.6630000000	37
82.6930000000	42
82.7230000000	38
82.7530000000	33
82.7830000000	36
82.8130000000	35
82.8430000000	46
82.8730000000	42
82.9030000000	44
82.9330000000	41
82.9630000000	44
82.9930000000	52
83.0230000000	45
83.0530000000	49
83.0830000000	47
83.1130000000	39
83.1430000000	44
83.1730000000	38
83.2030000000	30
83.2330000000	39
83.2630000000	37
83.2930000000	51
83.3230000000	52
83.3530000000	41
83.3830000000	62
83.4130000000	53
83.4430000000	55
83.4730000000	56
83.5030000000	62
83.5330000000	49
83.5630000000	39
83.5930000000	53
83.6230000000	63
83.6530000000	27
83.6830000000	46
83.7130000000	43
83.7430000000	35
83.7730000000	42
83.8030000000	36
83.8330000000	34
83.8630000000	42
83.8930000000	42
83.9230000000	33
83.9530000000	47
83.9830000000	34
84.0130000000	40
84.0430000000	28
84.0730000000	44
84.1030000000	42
84.1330000000	35
84.1630000000	36
84.1930000000	35
84.2230000000	34
84.2530000000	34
84.2830000000	28
84.3130000000	37
84.3430000000	39
84.3730000000	18
84.4030000000	37
84.4330000000	23
84.4630000000	33
84.4930000000	32
84.5230000000	35
84.5530000000	44
84.5830000000	31
84.6130000000	38
84.6430000000	36
84.6730000000	32
84.7030000000	39
84.7330000000	35
84.7630000000	27
84.7930000000	42
84.8230000000	43
84.8530000000	42
84.8830000000	34
84.9130000000	40
84.9430000000	34
84.9730000000	26
85.0030000000	38
85.0330000000	38
85.0630000000	35
85.0930000000	37
85.1230000000	38
85.1530000000	39
85.1830000000	40
85.2130000000	36
85.2430000000	41
85.2730000000	37
85.3030000000	37
85.3330000000	35
85.3630000000	42
85.3930000000	33
85.4230000000	39
85.4530000000	40
85.4830000000	41
85.5130000000	34
85.5430000000	37
85.5730000000	33
85.6030000000	29
85.6330000000	38
85.6630000000	43
85.6930000000	52
85.7230000000	43
85.7530000000	45
85.7830000000	41
85.8130000000	41
85.8430000000	29
85.8730000000	42
85.9030000000	47
85.9330000000	37
85.9630000000	47
85.9930000000	37
86.0230000000	36
86.0530000000	45
86.0830000000	46
86.1130000000	43
86.1430000000	47
86.1730000000	39
86.2030000000	29
86.2330000000	36
86.2630000000	38
86.2930000000	43
86.3230000000	41
86.3530000000	36
86.3830000000	42
86.4130000000	41
86.4430000000	29
86.4730000000	41
86.5030000000	45
86.5330000000	35
86.5630000000	34
86.5930000000	44
86.6230000000	40
86.6530000000	37
86.6830000000	38
86.7130000000	31
86.7430000000	38
86.7730000000	43
86.8030000000	44
86.8330000000	42
86.8630000000	41
86.8930000000	41
86.9230000000	38
86.9530000000	48
86.9830000000	54
87.0130000000	53
87.0430000000	45
87.0730000000	42
87.1030000000	43
87.1330000000	41
87.1630000000	44
87.1930000000	35
87.2230000000	39
87.2530000000	51
87.2830000000	38
87.3130000000	33
87.3430000000	38
87.3730000000	30
87.4030000000	28
87.4330000000	36
87.4630000000	31
87.4930000000	39
87.5230000000	43
87.5530000000	43
87.5830000000	31
87.6130000000	34
87.6430000000	36
87.6730000000	39
87.7030000000	42
87.7330000000	36
87.7630000000	40
87.7930000000	36
87.8230000000	41
87.8530000000	47
87.8830000000	47
87.9130000000	39
87.9430000000	43
87.9730000000	37
88.0030000000	44
88.0330000000	45
88.0630000000	46
88.0930000000	42
88.1230000000	39
88.1530000000	38
88.1830000000	40
88.2130000000	47
88.2430000000	40
88.2730000000	40
88.3030000000	39
88.3330000000	59
88.3630000000	48
88.3930000000	40
88.4230000000	34
88.4530000000	45
88.4830000000	44
88.5130000000	47
88.5430000000	39
88.5730000000	55
88.6030000000	34
88.6330000000	42
88.6630000000	37
88.6930000000	53
88.7230000000	56
88.7530000000	49
88.7830000000	34
88.8130000000	29
88.8430000000	33
88.8730000000	35
88.9030000000	50
88.9330000000	34
88.9630000000	46
88.9930000000	42
89.0230000000	43
89.0530000000	36
89.0830000000	31
89.1130000000	49
89.1430000000	51
89.1730000000	47
89.2030000000	32
89.2330000000	43
89.2630000000	39
89.2930000000	30
89.3230000000	41
89.3530000000	33
89.3830000000	26
89.4130000000	35
89.4430000000	46
89.4730000000	37
89.5030000000	47
89.5330000000	41
89.5630000000	50
89.5930000000	53
89.6230000000	52
89.6530000000	62
89.6830000000	50
89.7130000000	48
89.7430000000	62
89.7730000000	61
89.8030000000	53
89.8330000000	54
89.8630000000	52
89.8930000000	42
89.9230000000	48
89.9530000000	41
89.9830000000	48
90.0130000000	31
90.0430000000	44
90.0730000000	40
90.1030000000	35
90.1330000000	39
90.1630000000	49
90.1930000000	52
90.2230000000	36
90.2530000000	42
90.2830000000	31
90.3130000000	38
90.3430000000	42
90.3730000000	46
90.4030000000	39
90.4330000000	31
90.4630000000	32
90.4930000000	45
90.5230000000	40
90.5530000000	30
90.5830000000	43
90.6130000000	44
90.6430000000	49
90.6730000000	39
90.7030000000	38
90.7330000000	49
90.7630000000	44
90.7930000000	35
90.8230000000	40
90.8530000000	33
90.8830000000	37
90.9130000000	43
90.9430000000	45
90.9730000000	36
91.0030000000	24
91.0330000000	25
91.0630000000	31
91.0930000000	33
91.1230000000	36
91.1530000000	35
91.1830000000	37
91.2130000000	27
91.2430000000	22
91.2730000000	42
91.3030000000	38
91.3330000000	27
91.3630000000	29
91.3930000000	35
91.4230000000	46
91.4530000000	36
91.4830000000	37
91.5130000000	36
91.5430000000	27
91.5730000000	34
91.6030000000	43
91.6330000000	42
91.6630000000	35
91.6930000000	30
91.7230000000	40
91.7530000000	44
91.7830000000	43
91.8130000000	47
91.8430000000	28
91.8730000000	38
91.9030000000	38
91.9330000000	44
91.9630000000	38
91.9930000000	41
92.0230000000	27
92.0530000000	40
92.0830000000	44
92.1130000000	48
92.1430000000	34
92.1730000000	37
92.2030000000	42
92.2330000000	43
92.2630000000	38
92.2930000000	38
92.3230000000	40
92.3530000000	45
92.3830000000	39
92.4130000000	37
92.4430000000	36
92.4730000000	30
92.5030000000	38
92.5330000000	29
92.5630000000	43
92.5930000000	37
92.6230000000	40
92.6530000000	38
92.6830000000	41
92.7130000000	41
92.7430000000	42
92.7730000000	27
92.8030000000	41
92.8330000000	44
92.8630000000	41
92.8930000000	28
92.9230000000	29
92.9530000000	31
92.9830000000	33
93.0130000000	29
93.0430000000	37
93.0730000000	37
93.1030000000	42
93.1330000000	34
93.1630000000	35
93.1930000000	38
93.2230000000	28
93.2530000000	35
93.2830000000	45
93.3130000000	33
93.3430000000	30
93.3730000000	40
93.4030000000	37
93.4330000000	47
93.4630000000	38
93.4930000000	30
93.5230000000	46
93.5530000000	36
93.5830000000	43
93.6130000000	38
93.6430000000	47
93.6730000000	36
93.7030000000	38
93.7330000000	51
93.7630000000	46
93.7930000000	34
93.8230000000	45
93.8530000000	39
93.8830000000	48
93.9130000000	39
93.9430000000	40
93.9730000000	39
94.0030000000	43
94.0330000000	33
94.0630000000	49
94.0930000000	44
94.1230000000	47
94.1530000000	32
94.1830000000	38
94.2130000000	32
94.2430000000	39
94.2730000000	42
94.3030000000	38
94.3330000000	53
94.3630000000	49
94.3930000000	38
94.4230000000	40
94.4530000000	40
94.4830000000	31
94.5130000000	48
94.5430000000	49
94.5730000000	37
94.6030000000	43
94.6330000000	36
94.6630000000	30
94.6930000000	36
94.7230000000	32
94.7530000000	29
94.7830000000	35
94.8130000000	52
94.8430000000	34
94.8730000000	28
94.9030000000	31
94.9330000000	31
94.9630000000	28
94.9930000000	35
95.0230000000	33
95.0530000000	48
95.0830000000	31
95.1130000000	44
95.1430000000	27
95.1730000000	47
95.2030000000	35
95.2330000000	50
95.2630000000	37
95.2930000000	43
95.3230000000	29
95.3530000000	34
95.3830000000	39
95.4130000000	51
95.4430000000	38
95.4730000000	41
95.5030000000	39
95.5330000000	34
95.5630000000	40
95.5930000000	36
95.6230000000	42
95.6530000000	35
95.6830000000	49
95.7130000000	35
95.7430000000	39
95.7730000000	40
95.8030000000	38
95.8330000000	35
95.8630000000	40
95.8930000000	42
95.9230000000	36
95.9530000000	34
95.9830000000	39
96.0130000000	42
96.0430000000	41
96.0730000000	37
96.1030000000	36
96.1330000000	40
96.1630000000	33
96.1930000000	41
96.2230000000	46
96.2530000000	34
96.2830000000	39
96.3130000000	40
96.3430000000	34
96.3730000000	34
96.4030000000	54
96.4330000000	40
96.4630000000	46
96.4930000000	51
96.5230000000	43
96.5530000000	31
96.5830000000	37
96.6130000000	36
96.6430000000	24
96.6730000000	24
96.7030000000	35
96.7330000000	30
96.7630000000	42
96.7930000000	48
96.8230000000	44
96.8530000000	48
96.8830000000	37
96.9130000000	35
96.9430000000	37
96.9730000000	39
97.0030000000	46
97.0330000000	34
97.0630000000	34
97.0930000000	24
97.1230000000	33
97.1530000000	34
97.1830000000	35
97.2130000000	42
97.2430000000	42
97.2730000000	38
97.3030000000	38
97.3330000000	38
97.3630000000	37
97.3930000000	34
97.4230000000	34
97.4530000000	40
97.4830000000	39
97.5130000000	37
97.5430000000	45
97.5730000000	31
97.6030000000	39
97.6330000000	37
97.6630000000	34
97.6930000000	29
97.7230000000	36
97.7530000000	41
97.7830000000	40
97.8130000000	26
97.8430000000	41
97.8730000000	37
97.9030000000	46
97.9330000000	40
97.9630000000	38
97.9930000000	35
98.0230000000	41
98.0530000000	28
98.0830000000	42
98.1130000000	37
98.1430000000	34
98.1730000000	45
98.2030000000	37
98.2330000000	37
98.2630000000	44
98.2930000000	29
98.3230000000	41
98.3530000000	39
98.3830000000	39
98.4130000000	44
98.4430000000	38
98.4730000000	38
98.5030000000	48
98.5330000000	35
98.5630000000	34
98.5930000000	43
98.6230000000	40
98.6530000000	38
98.6830000000	45
98.7130000000	47
98.7430000000	43
98.7730000000	39
98.8030000000	41
98.8330000000	45
98.8630000000	40
98.8930000000	34
98.9230000000	36
98.9530000000	34
98.9830000000	33
99.0130000000	35
99.0430000000	48
99.0730000000	36
99.1030000000	50
99.1330000000	42
99.1630000000	30
99.1930000000	41
99.2230000000	49
99.2530000000	37
99.2830000000	34
99.3130000000	30
99.3430000000	36
99.3730000000	35
99.4030000000	42
99.4330000000	40
99.4630000000	28
99.4930000000	36
99.5230000000	36
99.5530000000	47
99.5830000000	47
99.6130000000	37
99.6430000000	38
99.6730000000	41
99.7030000000	38
99.7330000000	45
99.7630000000	50
99.7930000000	28
99.8230000000	24
99.8530000000	34
99.8830000000	36
99.9130000000	35
99.9430000000	38
99.9730000000	40
100.0030000000	42
100.0330000000	36
100.0630000000	36
100.0930000000	33
100.1230000000	31
100.1530000000	33
100.1830000000	37
100.2130000000	39
100.2430000000	38
100.2730000000	49
100.3030000000	39
100.3330000000	25
100.3630000000	35
100.3930000000	43
100.4230000000	28
100.4530000000	30
100.4830000000	36
100.5130000000	28
100.5430000000	24
100.5730000000	29
100.6030000000	43
100.6330000000	36
100.6630000000	34
100.6930000000	34
100.7230000000	37
100.7530000000	32
100.7830000000	35
100.8130000000	35
100.8430000000	36
100.8730000000	35
100.9030000000	38
100.9330000000	46
100.9630000000	30
100.9930000000	35
101.0230000000	35
101.0530000000	34
101.0830000000	42
101.1130000000	33
101.1430000000	27
101.1730000000	42
101.2030000000	41
101.2330000000	36
101.2630000000	31
101.2930000000	44
101.3230000000	44
101.3530000000	33
101.3830000000	34
101.4130000000	31
101.4430000000	41
101.4730000000	46
101.5030000000	31
101.5330000000	42
101.5630000000	43
101.5930000000	42
101.6230000000	43
101.6530000000	39
101.6830000000	40
101.7130000000	35
101.7430000000	39
101.7730000000	33
101.8030000000	30
101.8330000000	39
101.8630000000	41
101.8930000000	34
101.9230000000	44
101.9530000000	33
101.9830000000	42
102.0130000000	31
102.0430000000	50
102.0730000000	34
102.1030000000	35
102.1330000000	45
102.1630000000	41
102.1930000000	20
102.2230000000	28
102.2530000000	31
102.2830000000	33
102.3130000000	35
102.3430000000	38
102.3730000000	37
102.4030000000	49
102.4330000000	38
102.4630000000	43
102.4930000000	28
102.5230000000	28
102.5530000000	30
102.5830000000	35
102.6130000000	44
102.6430000000	43
102.6730000000	35
102.7030000000	39
102.7330000000	38
102.7630000000	34
102.7930000000	36
102.8230000000	34
102.8530000000	34
102.8830000000	39
102.9130000000	26
102.9430000000	36
102.9730000000	36
103.0030000000	41
103.0330000000	32
103.0630000000	39
103.0930000000	36
103.1230000000	30
103.1530000000	36
103.1830000000	31
103.2130000000	28
103.2430000000	40
103.2730000000	41
103.3030000000	31
103.3330000000	31
103.3630000000	37
103.3930000000	45
103.4230000000	33
103.4530000000	36
103.4830000000	34
103.5130000000	37
103.5430000000	36
103.5730000000	38
103.6030000000	33
103.6330000000	42
103.6630000000	36
103.6930000000	37
103.7230000000	35
103.7530000000	27
103.7830000000	31
103.8130000000	32
103.8430000000	30
103.8730000000	39
103.9030000000	42
103.9330000000	34
103.9630000000	40
103.9930000000	29
104.0230000000	38
104.0530000000	44
104.0830000000	35
104.1130000000	33
104.1430000000	34
104.1730000000	39
104.2030000000	42
104.2330000000	37
104.2630000000	38
104.2930000000	42
104.3230000000	42
104.3530000000	35
104.3830000000	36
104.4130000000	39
104.4430000000	40
104.4730000000	42
104.5030000000	43
104.5330000000	39
104.5630000000	40
104.5930000000	42
104.6230000000	41
104.6530000000	37
104.6830000000	38
104.7130000000	39
104.7430000000	43
104.7730000000	45
104.8030000000	41
104.8330000000	39
104.8630000000	45
104.8930000000	27
104.9230000000	36
104.9530000000	40
104.9830000000	46
105.0130000000	49
105.0430000000	44
105.0730000000	42
105.1030000000	36
105.1330000000	27
105.1630000000	27
105.1930000000	34
105.2230000000	36
105.2530000000	32
105.2830000000	31
105.3130000000	43
105.3430000000	32
105.3730000000	37
105.4030000000	25
105.4330000000	36
105.4630000000	38
105.4930000000	23
105.5230000000	36
105.5530000000	44
105.5830000000	30
105.6130000000	31
105.6430000000	30
105.6730000000	39
105.7030000000	42
105.7330000000	39
105.7630000000	40
105.7930000000	26
105.8230000000	28
105.8530000000	34
105.8830000000	36
105.9130000000	35
105.9430000000	37
105.9730000000	26
106.0030000000	36
106.0330000000	40
106.0630000000	38
106.0930000000	38
106.1230000000	31
106.1530000000	28
106.1830000000	38
106.2130000000	40
106.2430000000	38
106.2730000000	45
106.3030000000	30
106.3330000000	43
106.3630000000	33
106.3930000000	27
106.4230000000	33
106.4530000000	35
106.4830000000	33
106.5130000000	34
106.5430000000	25
106.5730000000	43
106.6030000000	47
106.6330000000	39
106.6630000000	39
106.6930000000	48
106.7230000000	35
106.7530000000	31
106.7830000000	40
106.8130000000	31
106.8430000000	49
106.8730000000	42
106.9030000000	44
106.9330000000	50
106.9630000000	41
106.9930000000	45
107.0230000000	30
107.0530000000	46
107.0830000000	46
107.1130000000	30
107.1430000000	47
107.1730000000	39
107.2030000000	38
107.2330000000	49
107.2630000000	34
107.2930000000	35
107.3230000000	37
107.3530000000	33
107.3830000000	39
107.4130000000	41
107.4430000000	32
107.4730000000	42
107.5030000000	42
107.5330000000	42
107.5630000000	40
107.5930000000	32
107.6230000000	41
107.6530000000	49
107.6830000000	49
107.7130000000	52
107.7430000000	46
107.7730000000	45
107.8030000000	44
107.8330000000	38
107.8630000000	40
107.8930000000	43
107.9230000000	39
107.9530000000	40
107.9830000000	49
108.0130000000	38
108.0430000000	44
108.0730000000	42
108.1030000000	37
108.1330000000	54
108.1630000000	46
108.1930000000	42
108.2230000000	53
108.2530000000	41
108.2830000000	41
108.3130000000	35
108.3430000000	49
108.3730000000	41
108.4030000000	38
108.4330000000	35
108.4630000000	31
108.4930000000	33
108.5230000000	38
108.5530000000	37
108.5830000000	38
108.6130000000	39
108.6430000000	29
108.6730000000	32
108.7030000000	35
108.7330000000	30
108.7630000000	34
108.7930000000	25
108.8230000000	37
108.8530000000	26
108.8830000000	42
108.9130000000	43
108.9430000000	32
108.9730000000	42
109.0030000000	31
109.0330000000	28
109.0630000000	31
109.0930000000	41
109.1230000000	39
109.1530000000	36
109.1830000000	41
109.2130000000	35
109.2430000000	38
109.2730000000	38
109.3030000000	44
109.3330000000	31
109.3630000000	40
109.3930000000	27
109.4230000000	40
109.4530000000	42
109.4830000000	38
109.5130000000	38
109.5430000000	39
109.5730000000	36
109.6030000000	37
109.6330000000	30
109.6630000000	59
109.6930000000	42
109.7230000000	48
109.7530000000	41
109.7830000000	39
109.8130000000	36
109.8430000000	43
109.8730000000	34
109.9030000000	31
109.9330000000	45
109.9630000000	32
109.9930000000	45
110.0230000000	35
110.0530000000	45
110.0830000000	41
110.1130000000	40
110.1430000000	36
110.1730000000	45
110.2030000000	35
110.2330000000	27
110.2630000000	29
110.2930000000	42
110.3230000000	50
110.3530000000	44
110.3830000000	46
110.4130000000	41
110.4430000000	48
110.4730000000	33
110.5030000000	46
110.5330000000	36
110.5630000000	36
110.5930000000	29
110.6230000000	40
110.6530000000	47
110.6830000000	47
110.7130000000	37
110.7430000000	43
110.7730000000	38
110.8030000000	41
110.8330000000	47
110.8630000000	38
110.8930000000	34
110.9230000000	39
110.9530000000	34
110.9830000000	42
111.0130000000	46
111.0430000000	40
111.0730000000	37
111.1030000000	38
111.1330000000	37
111.1630000000	37
111.1930000000	42
111.2230000000	45
111.2530000000	40
111.2830000000	38
111.3130000000	45
111.3430000000	50
111.3730000000	54
111.4030000000	37
111.4330000000	37
111.4630000000	38
111.4930000000	42
111.5230000000	46
111.5530000000	42
111.5830000000	39
111.6130000000	36
111.6430000000	39
111.6730000000	45
111.7030000000	43
111.7330000000	36
111.7630000000	36
111.7930000000	42
111.8230000000	42
111.8530000000	44
111.8830000000	43
111.9130000000	35
111.9430000000	34
111.9730000000	41
112.0030000000	36
112.0330000000	52
112.0630000000	39
112.0930000000	33
112.1230000000	37
112.1530000000	36
112.1830000000	43
112.2130000000	45
112.2430000000	38
112.2730000000	33
112.3030000000	38
112.3330000000	43
112.3630000000	27
112.3930000000	33
112.4230000000	33
112.4530000000	32
112.4830000000	41
112.5130000000	45
112.5430000000	36
112.5730000000	37
112.6030000000	31
112.6330000000	34
112.6630000000	39
112.6930000000	32
112.7230000000	32
112.7530000000	36
112.7830000000	41
112.8130000000	45
112.8430000000	35
112.8730000000	46
112.9030000000	42
112.9330000000	47
112.9630000000	33
112.9930000000	42
113.0230000000	51
113.0530000000	35
113.0830000000	46
113.1130000000	62
113.1430000000	61
113.1730000000	70
113.2030000000	81
113.2330000000	64
113.2630000000	57
113.2930000000	72
113.3230000000	57
113.3530000000	46
113.3830000000	42
113.4130000000	49
113.4430000000	64
113.4730000000	57
113.5030000000	42
113.5330000000	60
113.5630000000	59
113.5930000000	50
113.6230000000	49
113.6530000000	45
113.6830000000	52
113.7130000000	51
113.7430000000	42
113.7730000000	47
113.8030000000	56
113.8330000000	42
113.8630000000	36
113.8930000000	42
113.9230000000	42
113.9530000000	41
113.9830000000	40
114.0130000000	42
114.0430000000	47
114.0730000000	38
114.1030000000	40
114.1330000000	34
114.1630000000	49
114.1930000000	39
114.2230000000	46
114.2530000000	47
114.2830000000	37
114.3130000000	30
114.3430000000	37
114.3730000000	42
114.4030000000	41
114.4330000000	54
114.4630000000	1
114.4930000000	1
114.5230000000	1
114.5530000000	1
114.5830000000	1
