0.3130000000	1
0.3430000000	1
0.3730000000	1
0.4030000000	1
0.4330000000	1
0.4630000000	1
0.4930000000	1
0.5230000000	1
0.5530000000	1
0.5830000000	1
0.6130000000	1
0.6430000000	1
0.6730000000	2
0.7030000000	1
0.7330000000	1
0.7630000000	1
0.7930000000	2
0.8230000000	1
0.8530000000	1
0.8830000000	1
0.9130000000	1
0.9430000000	1
0.9730000000	1
1.0030000000	2
1.0330000000	2
1.0630000000	1
1.0930000000	1
1.1230000000	1
1.1530000000	3
1.1830000000	1
1.2130000000	1
1.2430000000	1
1.2730000000	1
1.3030000000	1
1.3330000000	1
1.3630000000	1
1.3930000000	1
1.4230000000	1
1.4530000000	1
1.4830000000	1
1.5130000000	1
1.5430000000	1
1.5730000000	1
1.6030000000	1
1.6330000000	1
1.6630000000	1
1.6930000000	1
1.7230000000	1
1.7530000000	1
1.7830000000	2
1.8130000000	1
1.8430000000	1
1.8730000000	1
1.9030000000	2
1.9330000000	2
1.9630000000	1
1.9930000000	2
2.0230000000	2
2.0530000000	1
2.0830000000	1
2.1130000000	1
2.1430000000	1
2.1730000000	1
2.2030000000	1
2.2330000000	1
2.2630000000	1
2.2930000000	1
2.3230000000	1
2.3530000000	3
2.3830000000	2
2.4130000000	1
2.4430000000	2
2.4730000000	1
2.5030000000	1
2.5330000000	1
2.5630000000	1
2.5930000000	1
2.6230000000	1
2.6530000000	1
2.6830000000	1
2.7130000000	1
2.7430000000	1
2.7730000000	2
2.8030000000	1
2.8330000000	3
2.8630000000	2
2.8930000000	1
2.9230000000	2
2.9530000000	1
2.9830000000	3
3.0130000000	1
3.0430000000	2
3.0730000000	4
3.1030000000	1
3.1330000000	2
3.1630000000	1
3.1930000000	1
3.2230000000	1
3.2530000000	1
3.2830000000	2
3.3130000000	3
3.3430000000	1
3.3730000000	4
3.4030000000	1
3.4330000000	1
3.4630000000	1
3.4930000000	2
3.5230000000	1
3.5530000000	1
3.5830000000	1
3.6130000000	1
3.6430000000	3
3.6730000000	4
3.7030000000	2
3.7330000000	1
3.7630000000	3
3.7930000000	1
3.8230000000	1
3.8530000000	1
3.8830000000	3
3.9130000000	2
3.9430000000	1
3.9730000000	2
4.0030000000	1
4.0330000000	3
4.0630000000	2
4.0930000000	5
4.1230000000	4
4.1530000000	3
4.1830000000	5
4.2130000000	4
4.2430000000	3
4.2730000000	3
4.3030000000	4
4.3330000000	5
4.3630000000	8
4.3930000000	6
4.4230000000	12
4.4530000000	10
4.4830000000	15
4.5130000000	27
4.5430000000	46
4.5730000000	68
4.6030000000	80
4.6330000000	93
4.6630000000	122
4.6930000000	145
4.7230000000	138
4.7530000000	137
4.7830000000	128
4.8130000000	139
4.8430000000	144
4.8730000000	148
4.9030000000	143
4.9330000000	149
4.9630000000	126
4.9930000000	143
5.0230000000	140
5.0530000000	139
5.0830000000	140
5.1130000000	141
5.1430000000	147
5.1730000000	147
5.2030000000	134
5.2330000000	135
5.2630000000	122
5.2930000000	144
5.3230000000	143
5.3530000000	174
5.3830000000	138
5.4130000000	155
5.4430000000	167
5.4730000000	138
5.5030000000	156
5.5330000000	142
5.5630000000	154
5.5930000000	141
5.6230000000	145
5.6530000000	149
5.6830000000	144
5.7130000000	148
5.7430000000	140
5.7730000000	157
5.8030000000	156
5.8330000000	137
5.8630000000	145
5.8930000000	142
5.9230000000	161
5.9530000000	154
5.9830000000	162
6.0130000000	159
6.0430000000	145
6.0730000000	146
6.1030000000	136
6.1330000000	131
6.1630000000	130
6.1930000000	138
6.2230000000	152
6.2530000000	172
6.2830000000	122
6.3130000000	163
6.3430000000	140
6.3730000000	172
6.4030000000	152
6.4330000000	143
6.4630000000	161
6.4930000000	164
6.5230000000	135
6.5530000000	151
6.5830000000	146
6.6130000000	132
6.6430000000	143
6.6730000000	150
6.7030000000	146
6.7330000000	151
6.7630000000	137
6.7930000000	135
6.8230000000	151
6.8530000000	146
6.8830000000	158
6.9130000000	164
6.9430000000	146
6.9730000000	145
7.0030000000	150
7.0330000000	148
7.0630000000	177
7.0930000000	133
7.1230000000	130
7.1530000000	151
7.1830000000	151
7.2130000000	170
7.2430000000	168
7.2730000000	141
7.3030000000	136
7.3330000000	169
7.3630000000	152
7.3930000000	141
7.4230000000	147
7.4530000000	132
7.4830000000	151
7.5130000000	166
7.5430000000	147
7.5730000000	142
7.6030000000	145
7.6330000000	150
7.6630000000	158
7.6930000000	153
7.7230000000	120
7.7530000000	135
7.7830000000	151
7.8130000000	138
7.8430000000	155
7.8730000000	152
7.9030000000	153
7.9330000000	140
7.9630000000	112
7.9930000000	121
8.0230000000	134
8.0530000000	153
8.0830000000	124
8.1130000000	148
8.1430000000	159
8.1730000000	138
8.2030000000	150
8.2330000000	128
8.2630000000	149
8.2930000000	155
8.3230000000	125
8.3530000000	160
8.3830000000	145
8.4130000000	152
8.4430000000	164
8.4730000000	148
8.5030000000	146
8.5330000000	155
8.5630000000	156
8.5930000000	157
8.6230000000	121
8.6530000000	130
8.6830000000	127
8.7130000000	158
8.7430000000	155
8.7730000000	136
8.8030000000	147
8.8330000000	147
8.8630000000	148
8.8930000000	139
8.9230000000	145
8.9530000000	137
8.9830000000	145
9.0130000000	152
9.0430000000	154
9.0730000000	141
9.1030000000	149
9.1330000000	133
9.1630000000	137
9.1930000000	143
9.2230000000	160
9.2530000000	140
9.2830000000	143
9.3130000000	134
9.3430000000	153
9.3730000000	146
9.4030000000	136
9.4330000000	148
9.4630000000	131
9.4930000000	127
9.5230000000	146
9.5530000000	131
9.5830000000	157
9.6130000000	144
9.6430000000	132
9.6730000000	144
9.7030000000	142
9.7330000000	157
9.7630000000	163
9.7930000000	141
9.8230000000	152
9.8530000000	145
9.8830000000	148
9.9130000000	157
9.9430000000	130
9.9730000000	161
10.0030000000	165
10.0330000000	147
10.0630000000	134
10.0930000000	151
10.1230000000	160
10.1530000000	139
10.1830000000	161
10.2130000000	167
10.2430000000	134
10.2730000000	148
10.3030000000	137
10.3330000000	147
10.3630000000	148
10.3930000000	161
10.4230000000	171
10.4530000000	143
10.4830000000	126
10.5130000000	146
10.5430000000	160
10.5730000000	150
10.6030000000	157
10.6330000000	140
10.6630000000	126
10.6930000000	148
10.7230000000	134
10.7530000000	158
10.7830000000	133
10.8130000000	162
10.8430000000	158
10.8730000000	145
10.9030000000	148
10.9330000000	158
10.9630000000	132
10.9930000000	132
11.0230000000	125
11.0530000000	155
11.0830000000	140
11.1130000000	158
11.1430000000	149
11.1730000000	153
11.2030000000	144
11.2330000000	139
11.2630000000	132
11.2930000000	128
11.3230000000	159
11.3530000000	145
11.3830000000	165
11.4130000000	149
11.4430000000	145
11.4730000000	146
11.5030000000	155
11.5330000000	130
11.5630000000	149
11.5930000000	129
11.6230000000	136
11.6530000000	171
11.6830000000	146
11.7130000000	149
11.7430000000	121
11.7730000000	140
11.8030000000	136
11.8330000000	150
11.8630000000	139
11.8930000000	160
11.9230000000	158
11.9530000000	161
11.9830000000	163
12.0130000000	124
12.0430000000	139
12.0730000000	148
12.1030000000	124
12.1330000000	151
12.1630000000	151
12.1930000000	130
12.2230000000	156
12.2530000000	156
12.2830000000	147
12.3130000000	132
12.3430000000	153
12.3730000000	150
12.4030000000	178
12.4330000000	152
12.4630000000	148
12.4930000000	168
12.5230000000	174
12.5530000000	174
12.5830000000	155
12.6130000000	159
12.6430000000	146
12.6730000000	135
12.7030000000	138
12.7330000000	140
12.7630000000	159
12.7930000000	165
12.8230000000	157
12.8530000000	140
12.8830000000	150
12.9130000000	149
12.9430000000	126
12.9730000000	138
13.0030000000	154
13.0330000000	139
13.0630000000	130
13.0930000000	155
13.1230000000	161
13.1530000000	130
13.1830000000	133
13.2130000000	118
13.2430000000	135
13.2730000000	144
13.3030000000	154
13.3330000000	139
13.3630000000	137
13.3930000000	157
13.4230000000	156
13.4530000000	144
13.4830000000	148
13.5130000000	160
13.5430000000	133
13.5730000000	152
13.6030000000	131
13.6330000000	131
13.6630000000	135
13.6930000000	148
13.7230000000	151
13.7530000000	146
13.7830000000	134
13.8130000000	158
13.8430000000	150
13.8730000000	123
13.9030000000	134
13.9330000000	153
13.9630000000	155
13.9930000000	129
14.0230000000	155
14.0530000000	153
14.0830000000	143
14.1130000000	129
14.1430000000	135
14.1730000000	142
14.2030000000	150
14.2330000000	161
14.2630000000	121
14.2930000000	147
14.3230000000	161
14.3530000000	156
14.3830000000	146
14.4130000000	159
14.4430000000	161
14.4730000000	144
14.5030000000	141
14.5330000000	144
14.5630000000	131
14.5930000000	150
14.6230000000	148
14.6530000000	132
14.6830000000	165
14.7130000000	131
14.7430000000	161
14.7730000000	153
14.8030000000	127
14.8330000000	143
14.8630000000	149
14.8930000000	141
14.9230000000	142
14.9530000000	145
14.9830000000	143
15.0130000000	162
15.0430000000	150
15.0730000000	146
15.1030000000	154
15.1330000000	147
15.1630000000	135
15.1930000000	145
15.2230000000	153
15.2530000000	144
15.2830000000	162
15.3130000000	149
15.3430000000	152
15.3730000000	152
15.4030000000	138
15.4330000000	160
15.4630000000	162
15.4930000000	153
15.5230000000	151
15.5530000000	156
15.5830000000	135
15.6130000000	144
15.6430000000	163
15.6730000000	162
15.7030000000	147
15.7330000000	152
15.7630000000	132
15.7930000000	141
15.8230000000	165
15.8530000000	135
15.8830000000	135
15.9130000000	152
15.9430000000	156
15.9730000000	151
16.0030000000	140
16.0330000000	144
16.0630000000	139
16.0930000000	147
16.1230000000	140
16.1530000000	136
16.1830000000	130
16.2130000000	122
16.2430000000	131
16.2730000000	132
16.3030000000	143
16.3330000000	168
16.3630000000	150
16.3930000000	127
16.4230000000	112
16.4530000000	155
16.4830000000	141
16.5130000000	153
16.5430000000	123
16.5730000000	141
16.6030000000	148
16.6330000000	138
16.6630000000	149
16.6930000000	136
16.7230000000	129
16.7530000000	155
16.7830000000	173
16.8130000000	146
16.8430000000	143
16.8730000000	169
16.9030000000	166
16.9330000000	140
16.9630000000	160
16.9930000000	125
17.0230000000	147
17.0530000000	157
17.0830000000	144
17.1130000000	161
17.1430000000	148
17.1730000000	150
17.2030000000	139
17.2330000000	144
17.2630000000	142
17.2930000000	137
17.3230000000	136
17.3530000000	149
17.3830000000	155
17.4130000000	144
17.4430000000	154
17.4730000000	144
17.5030000000	128
17.5330000000	136
17.5630000000	154
17.5930000000	161
17.6230000000	162
17.6530000000	141
17.6830000000	121
17.7130000000	145
17.7430000000	164
17.7730000000	160
17.8030000000	140
17.8330000000	124
17.8630000000	147
17.8930000000	136
17.9230000000	124
17.9530000000	142
17.9830000000	127
18.0130000000	119
18.0430000000	133
18.0730000000	145
18.1030000000	144
18.1330000000	155
18.1630000000	143
18.1930000000	139
18.2230000000	143
18.2530000000	146
18.2830000000	119
18.3130000000	146
18.3430000000	139
18.3730000000	156
18.4030000000	133
18.4330000000	138
18.4630000000	146
18.4930000000	136
18.5230000000	129
18.5530000000	140
18.5830000000	125
18.6130000000	154
18.6430000000	147
18.6730000000	161
18.7030000000	146
18.7330000000	132
18.7630000000	136
18.7930000000	156
18.8230000000	152
18.8530000000	151
18.8830000000	152
18.9130000000	144
18.9430000000	135
18.9730000000	140
19.0030000000	156
19.0330000000	157
19.0630000000	148
19.0930000000	155
19.1230000000	165
19.1530000000	160
19.1830000000	146
19.2130000000	155
19.2430000000	135
19.2730000000	133
19.3030000000	140
19.3330000000	173
19.3630000000	164
19.3930000000	156
19.4230000000	138
19.4530000000	140
19.4830000000	132
19.5130000000	145
19.5430000000	144
19.5730000000	163
19.6030000000	131
19.6330000000	164
19.6630000000	137
19.6930000000	142
19.7230000000	156
19.7530000000	144
19.7830000000	147
19.8130000000	140
19.8430000000	156
19.8730000000	166
19.9030000000	143
19.9330000000	159
19.9630000000	139
19.9930000000	138
20.0230000000	126
20.0530000000	143
20.0830000000	144
20.1130000000	145
20.1430000000	177
20.1730000000	148
20.2030000000	134
20.2330000000	139
20.2630000000	162
20.2930000000	152
20.3230000000	154
20.3530000000	159
20.3830000000	142
20.4130000000	150
20.4430000000	158
20.4730000000	146
20.5030000000	175
20.5330000000	130
20.5630000000	183
20.5930000000	167
20.6230000000	172
20.6530000000	233
20.6830000000	241
20.7130000000	284
20.7430000000	409
20.7730000000	497
20.8030000000	726
20.8330000000	889
20.8630000000	943
20.8930000000	932
20.9230000000	790
20.9530000000	576
20.9830000000	420
21.0130000000	272
21.0430000000	268
21.0730000000	179
21.1030000000	168
21.1330000000	190
21.1630000000	164
21.1930000000	165
21.2230000000	171
21.2530000000	191
21.2830000000	173
21.3130000000	159
21.3430000000	176
21.3730000000	156
21.4030000000	161
21.4330000000	150
21.4630000000	158
21.4930000000	173
21.5230000000	165
21.5530000000	172
21.5830000000	151
21.6130000000	153
21.6430000000	142
21.6730000000	136
21.7030000000	142
21.7330000000	162
21.7630000000	152
21.7930000000	158
21.8230000000	154
21.8530000000	162
21.8830000000	166
21.9130000000	163
21.9430000000	161
21.9730000000	148
22.0030000000	158
22.0330000000	168
22.0630000000	144
22.0930000000	168
22.1230000000	177
22.1530000000	172
22.1830000000	149
22.2130000000	156
22.2430000000	172
22.2730000000	154
22.3030000000	157
22.3330000000	172
22.3630000000	188
22.3930000000	178
22.4230000000	164
22.4530000000	175
22.4830000000	178
22.5130000000	175
22.5430000000	169
22.5730000000	172
22.6030000000	166
22.6330000000	160
22.6630000000	160
22.6930000000	148
22.7230000000	154
22.7530000000	152
22.7830000000	165
22.8130000000	164
22.8430000000	183
22.8730000000	155
22.9030000000	148
22.9330000000	171
22.9630000000	158
22.9930000000	178
23.0230000000	154
23.0530000000	173
23.0830000000	166
23.1130000000	160
23.1430000000	175
23.1730000000	167
23.2030000000	167
23.2330000000	162
23.2630000000	187
23.2930000000	179
23.3230000000	150
23.3530000000	154
23.3830000000	170
23.4130000000	165
23.4430000000	162
23.4730000000	190
23.5030000000	143
23.5330000000	163
23.5630000000	156
23.5930000000	145
23.6230000000	146
23.6530000000	171
23.6830000000	168
23.7130000000	174
23.7430000000	174
23.7730000000	169
23.8030000000	179
23.8330000000	174
23.8630000000	160
23.8930000000	159
23.9230000000	170
23.9530000000	168
23.9830000000	157
24.0130000000	171
24.0430000000	159
24.0730000000	181
24.1030000000	149
24.1330000000	171
24.1630000000	169
24.1930000000	160
24.2230000000	160
24.2530000000	180
24.2830000000	173
24.3130000000	149
24.3430000000	178
24.3730000000	169
24.4030000000	175
24.4330000000	158
24.4630000000	165
24.4930000000	142
24.5230000000	149
24.5530000000	162
24.5830000000	181
24.6130000000	160
24.6430000000	151
24.6730000000	184
24.7030000000	158
24.7330000000	179
24.7630000000	162
24.7930000000	153
24.8230000000	147
24.8530000000	146
24.8830000000	164
24.9130000000	182
24.9430000000	177
24.9730000000	172
25.0030000000	158
25.0330000000	155
25.0630000000	183
25.0930000000	186
25.1230000000	163
25.1530000000	148
25.1830000000	149
25.2130000000	157
25.2430000000	151
25.2730000000	178
25.3030000000	175
25.3330000000	159
25.3630000000	136
25.3930000000	150
25.4230000000	174
25.4530000000	150
25.4830000000	161
25.5130000000	164
25.5430000000	152
25.5730000000	157
25.6030000000	172
25.6330000000	194
25.6630000000	173
25.6930000000	178
25.7230000000	188
25.7530000000	202
25.7830000000	192
25.8130000000	201
25.8430000000	263
25.8730000000	281
25.9030000000	407
25.9330000000	508
25.9630000000	695
25.9930000000	937
26.0230000000	1284
26.0530000000	1505
26.0830000000	1453
26.1130000000	1362
26.1430000000	1075
26.1730000000	698
26.2030000000	498
26.2330000000	338
26.2630000000	259
26.2930000000	206
26.3230000000	168
26.3530000000	165
26.3830000000	162
26.4130000000	166
26.4430000000	178
26.4730000000	171
26.5030000000	169
26.5330000000	153
26.5630000000	146
26.5930000000	146
26.6230000000	149
26.6530000000	157
26.6830000000	128
26.7130000000	163
26.7430000000	164
26.7730000000	145
26.8030000000	154
26.8330000000	142
26.8630000000	130
26.8930000000	134
26.9230000000	161
26.9530000000	153
26.9830000000	142
27.0130000000	138
27.0430000000	126
27.0730000000	143
27.1030000000	149
27.1330000000	140
27.1630000000	127
27.1930000000	127
27.2230000000	153
27.2530000000	146
27.2830000000	126
27.3130000000	146
27.3430000000	142
27.3730000000	136
27.4030000000	140
27.4330000000	136
27.4630000000	151
27.4930000000	134
27.5230000000	140
27.5530000000	132
27.5830000000	141
27.6130000000	158
27.6430000000	155
27.6730000000	135
27.7030000000	161
27.7330000000	153
27.7630000000	140
27.7930000000	122
27.8230000000	130
27.8530000000	147
27.8830000000	171
27.9130000000	139
27.9430000000	121
27.9730000000	127
28.0030000000	140
28.0330000000	137
28.0630000000	153
28.0930000000	169
28.1230000000	182
28.1530000000	175
28.1830000000	224
28.2130000000	292
28.2430000000	279
28.2730000000	274
28.3030000000	239
28.3330000000	198
28.3630000000	187
28.3930000000	165
28.4230000000	153
28.4530000000	167
28.4830000000	158
28.5130000000	147
28.5430000000	125
28.5730000000	171
28.6030000000	107
28.6330000000	134
28.6630000000	141
28.6930000000	128
28.7230000000	131
28.7530000000	145
28.7830000000	130
28.8130000000	125
28.8430000000	130
28.8730000000	125
28.9030000000	138
28.9330000000	121
28.9630000000	128
28.9930000000	117
29.0230000000	140
29.0530000000	121
29.0830000000	124
29.1130000000	125
29.1430000000	121
29.1730000000	125
29.2030000000	144
29.2330000000	130
29.2630000000	114
29.2930000000	121
29.3230000000	127
29.3530000000	141
29.3830000000	123
29.4130000000	136
29.4430000000	105
29.4730000000	116
29.5030000000	111
29.5330000000	147
29.5630000000	127
29.5930000000	132
29.6230000000	131
29.6530000000	127
29.6830000000	117
29.7130000000	114
29.7430000000	114
29.7730000000	102
29.8030000000	119
29.8330000000	105
29.8630000000	123
29.8930000000	126
29.9230000000	116
29.9530000000	120
29.9830000000	106
30.0130000000	132
30.0430000000	109
30.0730000000	115
30.1030000000	121
30.1330000000	128
30.1630000000	128
30.1930000000	129
30.2230000000	107
30.2530000000	116
30.2830000000	102
30.3130000000	120
30.3430000000	126
30.3730000000	130
30.4030000000	122
30.4330000000	123
30.4630000000	130
30.4930000000	133
30.5230000000	124
30.5530000000	134
30.5830000000	120
30.6130000000	128
30.6430000000	110
30.6730000000	126
30.7030000000	118
30.7330000000	114
30.7630000000	109
30.7930000000	129
30.8230000000	118
30.8530000000	103
30.8830000000	104
30.9130000000	114
30.9430000000	111
30.9730000000	123
31.0030000000	116
31.0330000000	134
31.0630000000	118
31.0930000000	108
31.1230000000	130
31.1530000000	114
31.1830000000	115
31.2130000000	115
31.2430000000	131
31.2730000000	117
31.3030000000	109
31.3330000000	120
31.3630000000	105
31.3930000000	138
31.4230000000	103
31.4530000000	94
31.4830000000	105
31.5130000000	101
31.5430000000	110
31.5730000000	115
31.6030000000	127
31.6330000000	101
31.6630000000	110
31.6930000000	118
31.7230000000	94
31.7530000000	107
31.7830000000	111
31.8130000000	103
31.8430000000	109
31.8730000000	101
31.9030000000	92
31.9330000000	103
31.9630000000	117
31.9930000000	87
32.0230000000	102
32.0530000000	98
32.0830000000	102
32.1130000000	93
32.1430000000	122
32.1730000000	96
32.2030000000	108
32.2330000000	107
32.2630000000	102
32.2930000000	97
32.3230000000	101
32.3530000000	102
32.3830000000	113
32.4130000000	105
32.4430000000	97
32.4730000000	117
32.5030000000	100
32.5330000000	101
32.5630000000	104
32.5930000000	87
32.6230000000	91
32.6530000000	98
32.6830000000	109
32.7130000000	110
32.7430000000	96
32.7730000000	96
32.8030000000	100
32.8330000000	96
32.8630000000	99
32.8930000000	105
32.9230000000	107
32.9530000000	106
32.9830000000	107
33.0130000000	90
33.0430000000	109
33.0730000000	99
33.1030000000	124
33.1330000000	131
33.1630000000	122
33.1930000000	104
33.2230000000	96
33.2530000000	112
33.2830000000	144
33.3130000000	134
33.3430000000	142
33.3730000000	152
33.4030000000	207
33.4330000000	297
33.4630000000	421
33.4930000000	609
33.5230000000	943
33.5530000000	1345
33.5830000000	1885
33.6130000000	2491
33.6430000000	2680
33.6730000000	2447
33.7030000000	1987
33.7330000000	1435
33.7630000000	929
33.7930000000	620
33.8230000000	384
33.8530000000	252
33.8830000000	194
33.9130000000	165
33.9430000000	157
33.9730000000	130
34.0030000000	126
34.0330000000	127
34.0630000000	111
34.0930000000	114
34.1230000000	101
34.1530000000	107
34.1830000000	104
34.2130000000	97
34.2430000000	94
34.2730000000	99
34.3030000000	98
34.3330000000	104
34.3630000000	90
34.3930000000	104
34.4230000000	87
34.4530000000	83
34.4830000000	93
34.5130000000	117
34.5430000000	124
34.5730000000	102
34.6030000000	102
34.6330000000	89
34.6630000000	90
34.6930000000	100
34.7230000000	88
34.7530000000	97
34.7830000000	99
34.8130000000	104
34.8430000000	103
34.8730000000	90
34.9030000000	96
34.9330000000	95
34.9630000000	92
34.9930000000	82
35.0230000000	104
35.0530000000	93
35.0830000000	93
35.1130000000	96
35.1430000000	102
35.1730000000	86
35.2030000000	107
35.2330000000	91
35.2630000000	86
35.2930000000	97
35.3230000000	90
35.3530000000	97
35.3830000000	94
35.4130000000	84
35.4430000000	88
35.4730000000	88
35.5030000000	95
35.5330000000	86
35.5630000000	77
35.5930000000	92
35.6230000000	87
35.6530000000	89
35.6830000000	109
35.7130000000	103
35.7430000000	101
35.7730000000	102
35.8030000000	87
35.8330000000	71
35.8630000000	92
35.8930000000	84
35.9230000000	101
35.9530000000	119
35.9830000000	105
36.0130000000	154
36.0430000000	166
36.0730000000	214
36.1030000000	272
36.1330000000	298
36.1630000000	293
36.1930000000	299
36.2230000000	241
36.2530000000	183
36.2830000000	161
36.3130000000	142
36.3430000000	132
36.3730000000	112
36.4030000000	92
36.4330000000	83
36.4630000000	91
36.4930000000	87
36.5230000000	90
36.5530000000	89
36.5830000000	95
36.6130000000	97
36.6430000000	83
36.6730000000	85
36.7030000000	78
36.7330000000	81
36.7630000000	91
36.7930000000	87
36.8230000000	90
36.8530000000	88
36.8830000000	89
36.9130000000	93
36.9430000000	92
36.9730000000	82
37.0030000000	85
37.0330000000	103
37.0630000000	88
37.0930000000	75
37.1230000000	91
37.1530000000	85
37.1830000000	87
37.2130000000	95
37.2430000000	90
37.2730000000	98
37.3030000000	86
37.3330000000	85
37.3630000000	88
37.3930000000	99
37.4230000000	112
37.4530000000	100
37.4830000000	95
37.5130000000	79
37.5430000000	73
37.5730000000	81
37.6030000000	100
37.6330000000	95
37.6630000000	96
37.6930000000	101
37.7230000000	105
37.7530000000	100
37.7830000000	104
37.8130000000	102
37.8430000000	100
37.8730000000	115
37.9030000000	136
37.9330000000	122
37.9630000000	132
37.9930000000	194
38.0230000000	246
38.0530000000	347
38.0830000000	523
38.1130000000	817
38.1430000000	1219
38.1730000000	1853
38.2030000000	2433
38.2330000000	2843
38.2630000000	2956
38.2930000000	2675
38.3230000000	2042
38.3530000000	1444
38.3830000000	970
38.4130000000	576
38.4430000000	395
38.4730000000	270
38.5030000000	197
38.5330000000	186
38.5630000000	143
38.5930000000	119
38.6230000000	126
38.6530000000	115
38.6830000000	96
38.7130000000	99
38.7430000000	101
38.7730000000	94
38.8030000000	98
38.8330000000	96
38.8630000000	89
38.8930000000	85
38.9230000000	79
38.9530000000	84
38.9830000000	88
39.0130000000	81
39.0430000000	83
39.0730000000	93
39.1030000000	68
39.1330000000	81
39.1630000000	90
39.1930000000	98
39.2230000000	77
39.2530000000	88
39.2830000000	88
39.3130000000	79
39.3430000000	86
39.3730000000	81
39.4030000000	64
39.4330000000	73
39.4630000000	83
39.4930000000	92
39.5230000000	88
39.5530000000	83
39.5830000000	95
39.6130000000	89
39.6430000000	77
39.6730000000	69
39.7030000000	78
39.7330000000	84
39.7630000000	86
39.7930000000	81
39.8230000000	87
39.8530000000	76
39.8830000000	64
39.9130000000	86
39.9430000000	72
39.9730000000	100
40.0030000000	69
40.0330000000	74
40.0630000000	82
40.0930000000	78
40.1230000000	77
40.1530000000	86
40.1830000000	85
40.2130000000	61
40.2430000000	75
40.2730000000	86
40.3030000000	85
40.3330000000	74
40.3630000000	79
40.3930000000	73
40.4230000000	70
40.4530000000	91
40.4830000000	73
40.5130000000	97
40.5430000000	66
40.5730000000	77
40.6030000000	76
40.6330000000	77
40.6630000000	71
40.6930000000	75
40.7230000000	95
40.7530000000	89
40.7830000000	74
40.8130000000	83
40.8430000000	70
40.8730000000	75
40.9030000000	72
40.9330000000	85
40.9630000000	87
40.9930000000	89
41.0230000000	74
41.0530000000	84
41.0830000000	81
41.1130000000	83
41.1430000000	86
41.1730000000	80
41.2030000000	72
41.2330000000	88
41.2630000000	72
41.2930000000	82
41.3230000000	87
41.3530000000	90
41.3830000000	65
41.4130000000	70
41.4430000000	69
41.4730000000	70
41.5030000000	83
41.5330000000	75
41.5630000000	85
41.5930000000	86
41.6230000000	81
41.6530000000	83
41.6830000000	78
41.7130000000	68
41.7430000000	62
41.7730000000	64
41.8030000000	74
41.8330000000	94
41.8630000000	78
41.8930000000	100
41.9230000000	98
41.9530000000	95
41.9830000000	118
42.0130000000	165
42.0430000000	206
42.0730000000	277
42.1030000000	338
42.1330000000	352
42.1630000000	386
42.1930000000	378
42.2230000000	305
42.2530000000	237
42.2830000000	181
42.3130000000	127
42.3430000000	112
42.3730000000	112
42.4030000000	109
42.4330000000	110
42.4630000000	102
42.4930000000	96
42.5230000000	107
42.5530000000	103
42.5830000000	77
42.6130000000	74
42.6430000000	79
42.6730000000	79
42.7030000000	78
42.7330000000	64
42.7630000000	62
42.7930000000	82
42.8230000000	92
42.8530000000	67
42.8830000000	86
42.9130000000	81
42.9430000000	85
42.9730000000	67
43.0030000000	66
43.0330000000	58
43.0630000000	82
43.0930000000	80
43.1230000000	67
43.1530000000	74
43.1830000000	63
43.2130000000	58
43.2430000000	73
43.2730000000	70
43.3030000000	68
43.3330000000	75
43.3630000000	69
43.3930000000	62
43.4230000000	63
43.4530000000	67
43.4830000000	72
43.5130000000	70
43.5430000000	80
43.5730000000	66
43.6030000000	71
43.6330000000	66
43.6630000000	75
43.6930000000	71
43.7230000000	80
43.7530000000	89
43.7830000000	80
43.8130000000	111
43.8430000000	136
43.8730000000	160
43.9030000000	233
43.9330000000	244
43.9630000000	283
43.9930000000	282
44.0230000000	226
44.0530000000	190
44.0830000000	162
44.1130000000	148
44.1430000000	105
44.1730000000	87
44.2030000000	76
44.2330000000	86
44.2630000000	79
44.2930000000	72
44.3230000000	66
44.3530000000	69
44.3830000000	78
44.4130000000	78
44.4430000000	64
44.4730000000	74
44.5030000000	65
44.5330000000	72
44.5630000000	81
44.5930000000	56
44.6230000000	54
44.6530000000	85
44.6830000000	69
44.7130000000	66
44.7430000000	67
44.7730000000	60
44.8030000000	62
44.8330000000	52
44.8630000000	65
44.8930000000	70
44.9230000000	70
44.9530000000	66
44.9830000000	69
45.0130000000	73
45.0430000000	68
45.0730000000	73
45.1030000000	76
45.1330000000	62
45.1630000000	65
45.1930000000	51
45.2230000000	73
45.2530000000	74
45.2830000000	65
45.3130000000	61
45.3430000000	55
45.3730000000	67
45.4030000000	57
45.4330000000	58
45.4630000000	71
45.4930000000	61
45.5230000000	65
45.5530000000	61
45.5830000000	71
45.6130000000	72
45.6430000000	69
45.6730000000	74
45.7030000000	65
45.7330000000	64
45.7630000000	67
45.7930000000	57
45.8230000000	64
45.8530000000	65
45.8830000000	63
45.9130000000	65
45.9430000000	77
45.9730000000	58
46.0030000000	69
46.0330000000	82
46.0630000000	59
46.0930000000	73
46.1230000000	71
46.1530000000	73
46.1830000000	76
46.2130000000	89
46.2430000000	94
46.2730000000	83
46.3030000000	122
46.3330000000	158
46.3630000000	227
46.3930000000	280
46.4230000000	446
46.4530000000	645
46.4830000000	889
46.5130000000	974
46.5430000000	982
46.5730000000	962
46.6030000000	797
46.6330000000	679
46.6630000000	582
46.6930000000	460
46.7230000000	404
46.7530000000	480
46.7830000000	560
46.8130000000	682
46.8430000000	785
46.8730000000	694
46.9030000000	605
46.9330000000	554
46.9630000000	452
46.9930000000	349
47.0230000000	238
47.0530000000	159
47.0830000000	118
47.1130000000	105
47.1430000000	95
47.1730000000	81
47.2030000000	85
47.2330000000	61
47.2630000000	69
47.2930000000	80
47.3230000000	62
47.3530000000	71
47.3830000000	77
47.4130000000	55
47.4430000000	54
47.4730000000	61
47.5030000000	61
47.5330000000	60
47.5630000000	55
47.5930000000	68
47.6230000000	66
47.6530000000	59
47.6830000000	57
47.7130000000	64
47.7430000000	59
47.7730000000	59
47.8030000000	66
47.8330000000	58
47.8630000000	64
47.8930000000	70
47.9230000000	77
47.9530000000	71
47.9830000000	63
48.0130000000	58
48.0430000000	65
48.0730000000	64
48.1030000000	47
48.1330000000	65
48.1630000000	59
48.1930000000	69
48.2230000000	57
48.2530000000	62
48.2830000000	53
48.3130000000	60
48.3430000000	50
48.3730000000	56
48.4030000000	45
48.4330000000	53
48.4630000000	57
48.4930000000	56
48.5230000000	52
48.5530000000	63
48.5830000000	61
48.6130000000	51
48.6430000000	53
48.6730000000	59
48.7030000000	54
48.7330000000	48
48.7630000000	51
48.7930000000	47
48.8230000000	51
48.8530000000	57
48.8830000000	60
48.9130000000	53
48.9430000000	49
48.9730000000	49
49.0030000000	54
49.0330000000	62
49.0630000000	56
49.0930000000	59
49.1230000000	64
49.1530000000	66
49.1830000000	65
49.2130000000	47
49.2430000000	61
49.2730000000	58
49.3030000000	59
49.3330000000	53
49.3630000000	54
49.3930000000	62
49.4230000000	51
49.4530000000	58
49.4830000000	55
49.5130000000	66
49.5430000000	55
49.5730000000	59
49.6030000000	49
49.6330000000	57
49.6630000000	66
49.6930000000	56
49.7230000000	45
49.7530000000	55
49.7830000000	50
49.8130000000	46
49.8430000000	59
49.8730000000	50
49.9030000000	49
49.9330000000	51
49.9630000000	55
49.9930000000	42
50.0230000000	44
50.0530000000	46
50.0830000000	56
50.1130000000	46
50.1430000000	49
50.1730000000	50
50.2030000000	51
50.2330000000	50
50.2630000000	58
50.2930000000	56
50.3230000000	66
50.3530000000	57
50.3830000000	66
50.4130000000	54
50.4430000000	72
50.4730000000	78
50.5030000000	103
50.5330000000	120
50.5630000000	106
50.5930000000	86
50.6230000000	83
50.6530000000	86
50.6830000000	68
50.7130000000	74
50.7430000000	61
50.7730000000	40
50.8030000000	50
50.8330000000	55
50.8630000000	44
50.8930000000	46
50.9230000000	36
50.9530000000	48
50.9830000000	55
51.0130000000	53
51.0430000000	43
51.0730000000	42
51.1030000000	54
51.1330000000	55
51.1630000000	46
51.1930000000	48
51.2230000000	56
51.2530000000	58
51.2830000000	50
51.3130000000	42
51.3430000000	52
51.3730000000	61
51.4030000000	40
51.4330000000	45
51.4630000000	50
51.4930000000	53
51.5230000000	54
51.5530000000	51
51.5830000000	45
51.6130000000	48
51.6430000000	41
51.6730000000	39
51.7030000000	45
51.7330000000	46
51.7630000000	39
51.7930000000	54
51.8230000000	51
51.8530000000	51
51.8830000000	54
51.9130000000	53
51.9430000000	46
51.9730000000	41
52.0030000000	49
52.0330000000	52
52.0630000000	53
52.0930000000	49
52.1230000000	56
52.1530000000	42
52.1830000000	58
52.2130000000	48
52.2430000000	49
52.2730000000	47
52.3030000000	53
52.3330000000	59
52.3630000000	58
52.3930000000	39
52.4230000000	47
52.4530000000	52
52.4830000000	49
52.5130000000	42
52.5430000000	51
52.5730000000	42
52.6030000000	49
52.6330000000	46
52.6630000000	34
52.6930000000	45
52.7230000000	39
52.7530000000	41
52.7830000000	41
52.8130000000	52
52.8430000000	51
52.8730000000	49
52.9030000000	55
52.9330000000	57
52.9630000000	45
52.9930000000	58
53.0230000000	38
53.0530000000	48
53.0830000000	41
53.1130000000	51
53.1430000000	48
53.1730000000	44
53.2030000000	39
53.2330000000	44
53.2630000000	49
53.2930000000	50
53.3230000000	58
53.3530000000	56
53.3830000000	54
53.4130000000	45
53.4430000000	65
53.4730000000	64
53.5030000000	61
53.5330000000	61
53.5630000000	72
53.5930000000	93
53.6230000000	106
53.6530000000	110
53.6830000000	98
53.7130000000	88
53.7430000000	105
53.7730000000	90
53.8030000000	70
53.8330000000	72
53.8630000000	57
53.8930000000	48
53.9230000000	47
53.9530000000	47
53.9830000000	40
54.0130000000	56
54.0430000000	53
54.0730000000	46
54.1030000000	40
54.1330000000	46
54.1630000000	40
54.1930000000	42
54.2230000000	36
54.2530000000	37
54.2830000000	51
54.3130000000	50
54.3430000000	51
54.3730000000	51
54.4030000000	44
54.4330000000	43
54.4630000000	33
54.4930000000	37
54.5230000000	48
54.5530000000	40
54.5830000000	44
54.6130000000	48
54.6430000000	35
54.6730000000	44
54.7030000000	41
54.7330000000	52
54.7630000000	44
54.7930000000	56
54.8230000000	54
54.8530000000	59
54.8830000000	47
54.9130000000	39
54.9430000000	47
54.9730000000	39
55.0030000000	43
55.0330000000	44
55.0630000000	55
55.0930000000	52
55.1230000000	37
55.1530000000	41
55.1830000000	42
55.2130000000	49
55.2430000000	32
55.2730000000	45
55.3030000000	35
55.3330000000	43
55.3630000000	45
55.3930000000	42
55.4230000000	42
55.4530000000	37
55.4830000000	52
55.5130000000	42
55.5430000000	41
55.5730000000	34
55.6030000000	44
55.6330000000	48
55.6630000000	43
55.6930000000	46
55.7230000000	45
55.7530000000	45
55.7830000000	44
55.8130000000	50
55.8430000000	48
55.8730000000	42
55.9030000000	42
55.9330000000	39
55.9630000000	51
55.9930000000	39
56.0230000000	49
56.0530000000	43
56.0830000000	43
56.1130000000	45
56.1430000000	48
56.1730000000	34
56.2030000000	39
56.2330000000	40
56.2630000000	45
56.2930000000	43
56.3230000000	59
56.3530000000	46
56.3830000000	44
56.4130000000	41
56.4430000000	42
56.4730000000	42
56.5030000000	45
56.5330000000	43
56.5630000000	45
56.5930000000	42
56.6230000000	48
56.6530000000	47
56.6830000000	45
56.7130000000	57
56.7430000000	41
56.7730000000	44
56.8030000000	43
56.8330000000	59
56.8630000000	45
56.8930000000	39
56.9230000000	37
56.9530000000	51
56.9830000000	39
57.0130000000	32
57.0430000000	39
57.0730000000	46
57.1030000000	45
57.1330000000	51
57.1630000000	48
57.1930000000	42
57.2230000000	45
57.2530000000	45
57.2830000000	39
57.3130000000	41
57.3430000000	35
57.3730000000	48
57.4030000000	43
57.4330000000	52
57.4630000000	51
57.4930000000	46
57.5230000000	31
57.5530000000	42
57.5830000000	50
57.6130000000	33
57.6430000000	34
57.6730000000	46
57.7030000000	60
57.7330000000	49
57.7630000000	43
57.7930000000	35
57.8230000000	32
57.8530000000	37
57.8830000000	49
57.9130000000	43
57.9430000000	44
57.9730000000	41
58.0030000000	47
58.0330000000	54
58.0630000000	58
58.0930000000	67
58.1230000000	50
58.1530000000	66
58.1830000000	90
58.2130000000	86
58.2430000000	92
58.2730000000	80
58.3030000000	64
58.3330000000	63
58.3630000000	71
58.3930000000	51
58.4230000000	59
58.4530000000	66
58.4830000000	49
58.5130000000	41
58.5430000000	59
58.5730000000	41
58.6030000000	49
58.6330000000	37
58.6630000000	37
58.6930000000	45
58.7230000000	42
58.7530000000	43
58.7830000000	46
58.8130000000	42
58.8430000000	33
58.8730000000	46
58.9030000000	48
58.9330000000	56
58.9630000000	43
58.9930000000	38
59.0230000000	51
59.0530000000	66
59.0830000000	69
59.1130000000	69
59.1430000000	61
59.1730000000	62
59.2030000000	58
59.2330000000	68
59.2630000000	73
59.2930000000	52
59.3230000000	49
59.3530000000	46
59.3830000000	60
59.4130000000	51
59.4430000000	32
59.4730000000	58
59.5030000000	51
59.5330000000	38
59.5630000000	40
59.5930000000	33
59.6230000000	42
59.6530000000	53
59.6830000000	53
59.7130000000	44
59.7430000000	55
59.7730000000	46
59.8030000000	84
59.8330000000	74
59.8630000000	98
59.8930000000	112
59.9230000000	128
59.9530000000	131
59.9830000000	122
60.0130000000	105
60.0430000000	104
60.0730000000	102
60.1030000000	74
60.1330000000	70
60.1630000000	46
60.1930000000	52
60.2230000000	56
60.2530000000	45
60.2830000000	44
60.3130000000	50
60.3430000000	36
60.3730000000	44
60.4030000000	36
60.4330000000	43
60.4630000000	47
60.4930000000	43
60.5230000000	47
60.5530000000	62
60.5830000000	52
60.6130000000	53
60.6430000000	45
60.6730000000	36
60.7030000000	49
60.7330000000	54
60.7630000000	38
60.7930000000	50
60.8230000000	40
60.8530000000	50
60.8830000000	52
60.9130000000	46
60.9430000000	36
60.9730000000	38
61.0030000000	43
61.0330000000	46
61.0630000000	46
61.0930000000	37
61.1230000000	48
61.1530000000	40
61.1830000000	41
61.2130000000	45
61.2430000000	45
61.2730000000	43
61.3030000000	42
61.3330000000	39
61.3630000000	32
61.3930000000	38
61.4230000000	45
61.4530000000	50
61.4830000000	47
61.5130000000	30
61.5430000000	30
61.5730000000	34
61.6030000000	41
61.6330000000	39
61.6630000000	36
61.6930000000	31
61.7230000000	41
61.7530000000	41
61.7830000000	40
61.8130000000	43
61.8430000000	44
61.8730000000	44
61.9030000000	58
61.9330000000	52
61.9630000000	63
61.9930000000	73
62.0230000000	75
62.0530000000	71
62.0830000000	70
62.1130000000	63
62.1430000000	66
62.1730000000	66
62.2030000000	61
62.2330000000	64
62.2630000000	58
62.2930000000	43
62.3230000000	49
62.3530000000	40
62.3830000000	43
62.4130000000	37
62.4430000000	44
62.4730000000	35
62.5030000000	49
62.5330000000	32
62.5630000000	39
62.5930000000	42
62.6230000000	39
62.6530000000	43
62.6830000000	39
62.7130000000	39
62.7430000000	44
62.7730000000	41
62.8030000000	43
62.8330000000	44
62.8630000000	39
62.8930000000	37
62.9230000000	47
62.9530000000	42
62.9830000000	49
63.0130000000	46
63.0430000000	43
63.0730000000	40
63.1030000000	53
63.1330000000	43
63.1630000000	35
63.1930000000	48
63.2230000000	52
63.2530000000	48
63.2830000000	47
63.3130000000	61
63.3430000000	73
63.3730000000	60
63.4030000000	44
63.4330000000	47
63.4630000000	50
63.4930000000	34
63.5230000000	41
63.5530000000	41
63.5830000000	37
63.6130000000	41
63.6430000000	36
63.6730000000	47
63.7030000000	41
63.7330000000	39
63.7630000000	41
63.7930000000	47
63.8230000000	42
63.8530000000	39
63.8830000000	39
63.9130000000	41
63.9430000000	41
63.9730000000	45
64.0030000000	41
64.0330000000	37
64.0630000000	36
64.0930000000	36
64.1230000000	46
64.1530000000	43
64.1830000000	38
64.2130000000	38
64.2430000000	40
64.2730000000	55
64.3030000000	35
64.3330000000	38
64.3630000000	33
64.3930000000	34
64.4230000000	27
64.4530000000	29
64.4830000000	41
64.5130000000	53
64.5430000000	45
64.5730000000	39
64.6030000000	42
64.6330000000	42
64.6630000000	42
64.6930000000	39
64.7230000000	38
64.7530000000	31
64.7830000000	33
64.8130000000	39
64.8430000000	37
64.8730000000	40
64.9030000000	44
64.9330000000	42
64.9630000000	46
64.9930000000	40
65.0230000000	46
65.0530000000	41
65.0830000000	34
65.1130000000	35
65.1430000000	42
65.1730000000	39
65.2030000000	47
65.2330000000	29
65.2630000000	31
65.2930000000	36
65.3230000000	43
65.3530000000	40
65.3830000000	37
65.4130000000	43
65.4430000000	29
65.4730000000	34
65.5030000000	46
65.5330000000	29
65.5630000000	42
65.5930000000	50
65.6230000000	42
65.6530000000	46
65.6830000000	48
65.7130000000	35
65.7430000000	39
65.7730000000	39
65.8030000000	42
65.8330000000	35
65.8630000000	38
65.8930000000	40
65.9230000000	57
65.9530000000	55
65.9830000000	52
66.0130000000	71
66.0430000000	89
66.0730000000	77
66.1030000000	102
66.1330000000	100
66.1630000000	117
66.1930000000	126
66.2230000000	129
66.2530000000	105
66.2830000000	118
66.3130000000	115
66.3430000000	102
66.3730000000	73
66.4030000000	75
66.4330000000	70
66.4630000000	60
66.4930000000	51
66.5230000000	44
66.5530000000	30
66.5830000000	31
66.6130000000	46
66.6430000000	43
66.6730000000	35
66.7030000000	47
66.7330000000	40
66.7630000000	33
66.7930000000	36
66.8230000000	41
66.8530000000	41
66.8830000000	48
66.9130000000	44
66.9430000000	51
66.9730000000	36
67.0030000000	43
67.0330000000	31
67.0630000000	40
67.0930000000	37
67.1230000000	40
67.1530000000	43
67.1830000000	35
67.2130000000	34
67.2430000000	45
67.2730000000	34
67.3030000000	39
67.3330000000	29
67.3630000000	41
67.3930000000	35
67.4230000000	46
67.4530000000	42
67.4830000000	34
67.5130000000	41
67.5430000000	58
67.5730000000	38
67.6030000000	44
67.6330000000	40
67.6630000000	41
67.6930000000	43
67.7230000000	39
67.7530000000	37
67.7830000000	40
67.8130000000	43
67.8430000000	40
67.8730000000	32
67.9030000000	32
67.9330000000	42
67.9630000000	38
67.9930000000	39
68.0230000000	43
68.0530000000	41
68.0830000000	32
68.1130000000	50
68.1430000000	42
68.1730000000	42
68.2030000000	46
68.2330000000	35
68.2630000000	53
68.2930000000	33
68.3230000000	48
68.3530000000	36
68.3830000000	43
68.4130000000	38
68.4430000000	46
68.4730000000	29
68.5030000000	38
68.5330000000	33
68.5630000000	42
68.5930000000	42
68.6230000000	38
68.6530000000	40
68.6830000000	35
68.7130000000	37
68.7430000000	47
68.7730000000	68
68.8030000000	68
68.8330000000	83
68.8630000000	80
68.8930000000	65
68.9230000000	71
68.9530000000	67
68.9830000000	84
69.0130000000	73
69.0430000000	66
69.0730000000	53
69.1030000000	63
69.1330000000	80
69.1630000000	89
69.1930000000	89
69.2230000000	91
69.2530000000	84
69.2830000000	71
69.3130000000	58
69.3430000000	51
69.3730000000	60
69.4030000000	66
69.4330000000	44
69.4630000000	54
69.4930000000	43
69.5230000000	39
69.5530000000	45
69.5830000000	45
69.6130000000	43
69.6430000000	48
69.6730000000	40
69.7030000000	37
69.7330000000	36
69.7630000000	42
69.7930000000	44
69.8230000000	30
69.8530000000	47
69.8830000000	43
69.9130000000	39
69.9430000000	29
69.9730000000	41
70.0030000000	38
70.0330000000	44
70.0630000000	37
70.0930000000	47
70.1230000000	36
70.1530000000	36
70.1830000000	38
70.2130000000	38
70.2430000000	33
70.2730000000	40
70.3030000000	31
70.3330000000	38
70.3630000000	30
70.3930000000	50
70.4230000000	42
70.4530000000	45
70.4830000000	35
70.5130000000	37
70.5430000000	37
70.5730000000	32
70.6030000000	46
70.6330000000	46
70.6630000000	65
70.6930000000	29
70.7230000000	51
70.7530000000	41
70.7830000000	52
70.8130000000	42
70.8430000000	33
70.8730000000	33
70.9030000000	36
70.9330000000	42
70.9630000000	37
70.9930000000	36
71.0230000000	32
71.0530000000	37
71.0830000000	39
71.1130000000	42
71.1430000000	33
71.1730000000	32
71.2030000000	35
71.2330000000	46
71.2630000000	34
71.2930000000	41
71.3230000000	41
71.3530000000	40
71.3830000000	37
71.4130000000	32
71.4430000000	37
71.4730000000	37
71.5030000000	38
71.5330000000	48
71.5630000000	36
71.5930000000	44
71.6230000000	40
71.6530000000	41
71.6830000000	34
71.7130000000	46
71.7430000000	36
71.7730000000	27
71.8030000000	34
71.8330000000	32
71.8630000000	34
71.8930000000	38
71.9230000000	37
71.9530000000	39
71.9830000000	38
72.0130000000	45
72.0430000000	42
72.0730000000	56
72.1030000000	53
72.1330000000	44
72.1630000000	61
72.1930000000	67
72.2230000000	77
72.2530000000	76
72.2830000000	81
72.3130000000	93
72.3430000000	66
72.3730000000	66
72.4030000000	70
72.4330000000	71
72.4630000000	65
72.4930000000	55
72.5230000000	62
72.5530000000	58
72.5830000000	42
72.6130000000	41
72.6430000000	54
72.6730000000	60
72.7030000000	36
72.7330000000	40
72.7630000000	37
72.7930000000	40
72.8230000000	38
72.8530000000	29
72.8830000000	38
72.9130000000	46
72.9430000000	40
72.9730000000	37
73.0030000000	44
73.0330000000	37
73.0630000000	43
73.0930000000	51
73.1230000000	40
73.1530000000	41
73.1830000000	46
73.2130000000	56
73.2430000000	54
73.2730000000	65
73.3030000000	66
73.3330000000	93
73.3630000000	85
73.3930000000	81
73.4230000000	72
73.4530000000	68
73.4830000000	74
73.5130000000	61
73.5430000000	63
73.5730000000	61
73.6030000000	49
73.6330000000	39
73.6630000000	41
73.6930000000	38
73.7230000000	42
73.7530000000	62
73.7830000000	33
73.8130000000	38
73.8430000000	42
73.8730000000	45
73.9030000000	55
73.9330000000	43
73.9630000000	38
73.9930000000	35
74.0230000000	32
74.0530000000	32
74.0830000000	34
74.1130000000	42
74.1430000000	52
74.1730000000	40
74.2030000000	40
74.2330000000	44
74.2630000000	32
74.2930000000	36
74.3230000000	36
74.3530000000	46
74.3830000000	48
74.4130000000	34
74.4430000000	41
74.4730000000	37
74.5030000000	32
74.5330000000	38
74.5630000000	43
74.5930000000	43
74.6230000000	37
74.6530000000	37
74.6830000000	33
74.7130000000	33
74.7430000000	41
74.7730000000	47
74.8030000000	53
74.8330000000	55
74.8630000000	57
74.8930000000	60
74.9230000000	75
74.9530000000	85
74.9830000000	76
75.0130000000	82
75.0430000000	95
75.0730000000	98
75.1030000000	83
75.1330000000	107
75.1630000000	93
75.1930000000	94
75.2230000000	107
75.2530000000	101
75.2830000000	93
75.3130000000	82
75.3430000000	61
75.3730000000	59
75.4030000000	62
75.4330000000	60
75.4630000000	64
75.4930000000	59
75.5230000000	58
75.5530000000	65
75.5830000000	37
75.6130000000	50
75.6430000000	45
75.6730000000	44
75.7030000000	31
75.7330000000	38
75.7630000000	49
75.7930000000	32
75.8230000000	39
75.8530000000	45
75.8830000000	45
75.9130000000	35
75.9430000000	36
75.9730000000	39
76.0030000000	39
76.0330000000	47
76.0630000000	45
76.0930000000	36
76.1230000000	37
76.1530000000	41
76.1830000000	39
76.2130000000	40
76.2430000000	38
76.2730000000	33
76.3030000000	45
76.3330000000	43
76.3630000000	31
76.3930000000	36
76.4230000000	29
76.4530000000	39
76.4830000000	41
76.5130000000	36
76.5430000000	35
76.5730000000	34
76.6030000000	35
76.6330000000	48
76.6630000000	37
76.6930000000	30
76.7230000000	52
76.7530000000	55
76.7830000000	58
76.8130000000	73
76.8430000000	58
76.8730000000	67
76.9030000000	46
76.9330000000	45
76.9630000000	48
76.9930000000	54
77.0230000000	63
77.0530000000	37
77.0830000000	42
77.1130000000	56
77.1430000000	38
77.1730000000	45
77.2030000000	45
77.2330000000	42
77.2630000000	42
77.2930000000	44
77.3230000000	37
77.3530000000	33
77.3830000000	44
77.4130000000	39
77.4430000000	43
77.4730000000	55
77.5030000000	56
77.5330000000	50
77.5630000000	57
77.5930000000	65
77.6230000000	55
77.6530000000	50
77.6830000000	47
77.7130000000	45
77.7430000000	56
77.7730000000	39
77.8030000000	40
77.8330000000	44
77.8630000000	41
77.8930000000	37
77.9230000000	38
77.9530000000	33
77.9830000000	26
78.0130000000	44
78.0430000000	35
78.0730000000	47
78.1030000000	41
78.1330000000	39
78.1630000000	30
78.1930000000	38
78.2230000000	42
78.2530000000	32
78.2830000000	40
78.3130000000	36
78.3430000000	30
78.3730000000	30
78.4030000000	41
78.4330000000	28
78.4630000000	31
78.4930000000	43
78.5230000000	41
78.5530000000	43
78.5830000000	36
78.6130000000	31
78.6430000000	35
78.6730000000	35
78.7030000000	41
78.7330000000	36
78.7630000000	31
78.7930000000	35
78.8230000000	39
78.8530000000	35
78.8830000000	41
78.9130000000	38
78.9430000000	37
78.9730000000	38
79.0030000000	38
79.0330000000	44
79.0630000000	41
79.0930000000	31
79.1230000000	35
79.1530000000	30
79.1830000000	37
79.2130000000	35
79.2430000000	35
79.2730000000	39
79.3030000000	50
79.3330000000	29
79.3630000000	34
79.3930000000	39
79.4230000000	34
79.4530000000	32
79.4830000000	39
79.5130000000	45
79.5430000000	37
79.5730000000	33
79.6030000000	42
79.6330000000	32
79.6630000000	34
79.6930000000	42
79.7230000000	21
79.7530000000	37
79.7830000000	40
79.8130000000	37
79.8430000000	34
79.8730000000	37
79.9030000000	47
79.9330000000	39
79.9630000000	35
79.9930000000	32
80.0230000000	45
80.0530000000	35
80.0830000000	33
80.1130000000	36
80.1430000000	36
80.1730000000	41
80.2030000000	42
80.2330000000	43
80.2630000000	39
80.2930000000	39
80.3230000000	44
80.3530000000	32
80.3830000000	30
80.4130000000	32
80.4430000000	31
80.4730000000	35
80.5030000000	36
80.5330000000	44
80.5630000000	45
80.5930000000	54
80.6230000000	53
80.6530000000	46
80.6830000000	36
80.7130000000	42
80.7430000000	36
80.7730000000	41
80.8030000000	32
80.8330000000	51
80.8630000000	40
80.8930000000	43
80.9230000000	28
80.9530000000	47
80.9830000000	29
81.0130000000	50
81.0430000000	46
81.0730000000	33
81.1030000000	36
81.1330000000	43
81.1630000000	39
81.1930000000	46
81.2230000000	46
81.2530000000	42
81.2830000000	28
81.3130000000	44
81.3430000000	35
81.3730000000	41
81.4030000000	46
81.4330000000	45
81.4630000000	49
81.4930000000	60
81.5230000000	76
81.5530000000	71
81.5830000000	67
81.6130000000	65
81.6430000000	56
81.6730000000	55
81.7030000000	65
81.7330000000	84
81.7630000000	68
81.7930000000	68
81.8230000000	68
81.8530000000	65
81.8830000000	65
81.9130000000	73
81.9430000000	62
81.9730000000	62
82.0030000000	42
82.0330000000	52
82.0630000000	52
82.0930000000	39
82.1230000000	44
82.1530000000	57
82.1830000000	54
82.2130000000	41
82.2430000000	39
82.2730000000	34
82.3030000000	45
82.3330000000	41
82.3630000000	34
82.3930000000	35
82.4230000000	39
82.4530000000	40
82.4830000000	36
82.5130000000	30
82.5430000000	31
82.5730000000	41
82.6030000000	41
82.6330000000	37
82.6630000000	37
82.6930000000	41
82.7230000000	32
82.7530000000	29
82.7830000000	37
82.8130000000	41
82.8430000000	37
82.8730000000	30
82.9030000000	30
82.9330000000	38
82.9630000000	30
82.9930000000	37
83.0230000000	35
83.0530000000	35
83.0830000000	31
83.1130000000	33
83.1430000000	26
83.1730000000	30
83.2030000000	37
83.2330000000	36
83.2630000000	36
83.2930000000	45
83.3230000000	35
83.3530000000	38
83.3830000000	47
83.4130000000	28
83.4430000000	43
83.4730000000	42
83.5030000000	43
83.5330000000	48
83.5630000000	56
83.5930000000	45
83.6230000000	46
83.6530000000	63
83.6830000000	59
83.7130000000	61
83.7430000000	61
83.7730000000	53
83.8030000000	66
83.8330000000	53
83.8630000000	43
83.8930000000	46
83.9230000000	40
83.9530000000	50
83.9830000000	36
84.0130000000	40
84.0430000000	40
84.0730000000	41
84.1030000000	38
84.1330000000	40
84.1630000000	35
84.1930000000	43
84.2230000000	39
84.2530000000	47
84.2830000000	34
84.3130000000	41
84.3430000000	40
84.3730000000	32
84.4030000000	34
84.4330000000	38
84.4630000000	28
84.4930000000	43
84.5230000000	38
84.5530000000	40
84.5830000000	38
84.6130000000	38
84.6430000000	49
84.6730000000	47
84.7030000000	54
84.7330000000	58
84.7630000000	66
84.7930000000	72
84.8230000000	89
84.8530000000	77
84.8830000000	86
84.9130000000	87
84.9430000000	66
84.9730000000	79
85.0030000000	60
85.0330000000	71
85.0630000000	64
85.0930000000	53
85.1230000000	59
85.1530000000	58
85.1830000000	57
85.2130000000	32
85.2430000000	46
85.2730000000	42
85.3030000000	41
85.3330000000	53
85.3630000000	42
85.3930000000	36
85.4230000000	30
85.4530000000	36
85.4830000000	46
85.5130000000	40
85.5430000000	26
85.5730000000	43
85.6030000000	45
85.6330000000	45
85.6630000000	37
85.6930000000	39
85.7230000000	33
85.7530000000	27
85.7830000000	38
85.8130000000	41
85.8430000000	44
85.8730000000	41
85.9030000000	34
85.9330000000	44
85.9630000000	39
85.9930000000	34
86.0230000000	41
86.0530000000	28
86.0830000000	31
86.1130000000	32
86.1430000000	45
86.1730000000	42
86.2030000000	29
86.2330000000	41
86.2630000000	38
86.2930000000	34
86.3230000000	38
86.3530000000	39
86.3830000000	30
86.4130000000	37
86.4430000000	38
86.4730000000	37
86.5030000000	32
86.5330000000	30
86.5630000000	33
86.5930000000	38
86.6230000000	46
86.6530000000	26
86.6830000000	28
86.7130000000	38
86.7430000000	34
86.7730000000	32
86.8030000000	37
86.8330000000	38
86.8630000000	39
86.8930000000	29
86.9230000000	35
86.9530000000	37
86.9830000000	32
87.0130000000	32
87.0430000000	34
87.0730000000	38
87.1030000000	40
87.1330000000	36
87.1630000000	32
87.1930000000	32
87.2230000000	36
87.2530000000	35
87.2830000000	36
87.3130000000	41
87.3430000000	32
87.3730000000	36
87.4030000000	28
87.4330000000	33
87.4630000000	34
87.4930000000	33
87.5230000000	34
87.5530000000	36
87.5830000000	30
87.6130000000	31
87.6430000000	30
87.6730000000	33
87.7030000000	36
87.7330000000	34
87.7630000000	38
87.7930000000	44
87.8230000000	26
87.8530000000	31
87.8830000000	37
87.9130000000	41
87.9430000000	30
87.9730000000	39
88.0030000000	30
88.0330000000	42
88.0630000000	34
88.0930000000	40
88.1230000000	41
88.1530000000	40
88.1830000000	27
88.2130000000	36
88.2430000000	50
88.2730000000	39
88.3030000000	40
88.3330000000	37
88.3630000000	26
88.3930000000	28
88.4230000000	34
88.4530000000	36
88.4830000000	33
88.5130000000	41
88.5430000000	39
88.5730000000	36
88.6030000000	30
88.6330000000	33
88.6630000000	25
88.6930000000	22
88.7230000000	41
88.7530000000	36
88.7830000000	36
88.8130000000	32
88.8430000000	42
88.8730000000	34
88.9030000000	29
88.9330000000	30
88.9630000000	44
88.9930000000	39
89.0230000000	42
89.0530000000	32
89.0830000000	36
89.1130000000	46
89.1430000000	49
89.1730000000	49
89.2030000000	51
89.2330000000	45
89.2630000000	47
89.2930000000	47
89.3230000000	36
89.3530000000	49
89.3830000000	45
89.4130000000	38
89.4430000000	41
89.4730000000	38
89.5030000000	40
89.5330000000	31
89.5630000000	44
89.5930000000	41
89.6230000000	29
89.6530000000	52
89.6830000000	46
89.7130000000	33
89.7430000000	40
89.7730000000	48
89.8030000000	48
89.8330000000	36
89.8630000000	36
89.8930000000	49
89.9230000000	43
89.9530000000	47
89.9830000000	43
90.0130000000	49
90.0430000000	39
90.0730000000	48
90.1030000000	48
90.1330000000	40
90.1630000000	39
90.1930000000	34
90.2230000000	26
90.2530000000	43
90.2830000000	41
90.3130000000	27
90.3430000000	30
90.3730000000	44
90.4030000000	32
90.4330000000	30
90.4630000000	30
90.4930000000	25
90.5230000000	38
90.5530000000	37
90.5830000000	38
90.6130000000	43
90.6430000000	36
90.6730000000	39
90.7030000000	32
90.7330000000	42
90.7630000000	38
90.7930000000	31
90.8230000000	31
90.8530000000	30
90.8830000000	27
90.9130000000	37
90.9430000000	29
90.9730000000	29
91.0030000000	37
91.0330000000	28
91.0630000000	38
91.0930000000	35
91.1230000000	35
91.1530000000	36
91.1830000000	36
91.2130000000	34
91.2430000000	31
91.2730000000	27
91.3030000000	41
91.3330000000	41
91.3630000000	38
91.3930000000	40
91.4230000000	36
91.4530000000	39
91.4830000000	43
91.5130000000	35
91.5430000000	29
91.5730000000	39
91.6030000000	42
91.6330000000	42
91.6630000000	32
91.6930000000	27
91.7230000000	44
91.7530000000	31
91.7830000000	44
91.8130000000	38
91.8430000000	48
91.8730000000	43
91.9030000000	41
91.9330000000	42
91.9630000000	41
91.9930000000	49
92.0230000000	48
92.0530000000	35
92.0830000000	36
92.1130000000	38
92.1430000000	53
92.1730000000	26
92.2030000000	38
92.2330000000	34
92.2630000000	36
92.2930000000	33
92.3230000000	35
92.3530000000	47
92.3830000000	24
92.4130000000	41
92.4430000000	41
92.4730000000	36
92.5030000000	35
92.5330000000	30
92.5630000000	37
92.5930000000	36
92.6230000000	34
92.6530000000	34
92.6830000000	35
92.7130000000	50
92.7430000000	34
92.7730000000	42
92.8030000000	30
92.8330000000	28
92.8630000000	46
92.8930000000	40
92.9230000000	33
92.9530000000	39
92.9830000000	34
93.0130000000	35
93.0430000000	37
93.0730000000	47
93.1030000000	42
93.1330000000	37
93.1630000000	34
93.1930000000	34
93.2230000000	46
93.2530000000	52
93.2830000000	45
93.3130000000	37
93.3430000000	44
93.3730000000	48
93.4030000000	35
93.4330000000	41
93.4630000000	32
93.4930000000	39
93.5230000000	43
93.5530000000	42
93.5830000000	39
93.6130000000	43
93.6430000000	44
93.6730000000	33
93.7030000000	31
93.7330000000	47
93.7630000000	43
93.7930000000	29
93.8230000000	33
93.8530000000	31
93.8830000000	34
93.9130000000	25
93.9430000000	40
93.9730000000	44
94.0030000000	44
94.0330000000	48
94.0630000000	43
94.0930000000	37
94.1230000000	40
94.1530000000	40
94.1830000000	48
94.2130000000	58
94.2430000000	49
94.2730000000	76
94.3030000000	67
94.3330000000	60
94.3630000000	51
94.3930000000	47
94.4230000000	48
94.4530000000	66
94.4830000000	56
94.5130000000	49
94.5430000000	56
94.5730000000	51
94.6030000000	58
94.6330000000	56
94.6630000000	46
94.6930000000	54
94.7230000000	54
94.7530000000	39
94.7830000000	59
94.8130000000	54
94.8430000000	44
94.8730000000	40
94.9030000000	50
94.9330000000	43
94.9630000000	41
94.9930000000	38
95.0230000000	56
95.0530000000	42
95.0830000000	32
95.1130000000	34
95.1430000000	30
95.1730000000	43
95.2030000000	38
95.2330000000	47
95.2630000000	40
95.2930000000	40
95.3230000000	41
95.3530000000	39
95.3830000000	44
95.4130000000	26
95.4430000000	44
95.4730000000	40
95.5030000000	40
95.5330000000	38
95.5630000000	36
95.5930000000	48
95.6230000000	54
95.6530000000	34
95.6830000000	40
95.7130000000	37
95.7430000000	31
95.7730000000	45
95.8030000000	37
95.8330000000	39
95.8630000000	46
95.8930000000	44
95.9230000000	32
95.9530000000	42
95.9830000000	37
96.0130000000	40
96.0430000000	38
96.0730000000	33
96.1030000000	40
96.1330000000	34
96.1630000000	35
96.1930000000	35
96.2230000000	40
96.2530000000	31
96.2830000000	36
96.3130000000	33
96.3430000000	33
96.3730000000	37
96.4030000000	37
96.4330000000	20
96.4630000000	29
96.4930000000	33
96.5230000000	40
96.5530000000	44
96.5830000000	33
96.6130000000	39
96.6430000000	32
96.6730000000	37
96.7030000000	42
96.7330000000	27
96.7630000000	36
96.7930000000	26
96.8230000000	30
96.8530000000	42
96.8830000000	31
96.9130000000	41
96.9430000000	31
96.9730000000	40
97.0030000000	35
97.0330000000	38
97.0630000000	35
97.0930000000	47
97.1230000000	41
97.1530000000	33
97.1830000000	37
97.2130000000	36
97.2430000000	32
97.2730000000	31
97.3030000000	40
97.3330000000	52
97.3630000000	44
97.3930000000	40
97.4230000000	38
97.4530000000	31
97.4830000000	36
97.5130000000	35
97.5430000000	29
97.5730000000	32
97.6030000000	36
97.6330000000	29
97.6630000000	41
97.6930000000	40
97.7230000000	38
97.7530000000	38
97.7830000000	22
97.8130000000	36
97.8430000000	36
97.8730000000	39
97.9030000000	39
97.9330000000	30
97.9630000000	36
97.9930000000	36
98.0230000000	34
98.0530000000	31
98.0830000000	30
98.1130000000	39
98.1430000000	29
98.1730000000	38
98.2030000000	40
98.2330000000	39
98.2630000000	31
98.2930000000	43
98.3230000000	34
98.3530000000	31
98.3830000000	35
98.4130000000	35
98.4430000000	34
98.4730000000	44
98.5030000000	37
98.5330000000	42
98.5630000000	45
98.5930000000	33
98.6230000000	41
98.6530000000	43
98.6830000000	43
98.7130000000	39
98.7430000000	42
98.7730000000	48
98.8030000000	40
98.8330000000	40
98.8630000000	47
98.8930000000	34
98.9230000000	42
98.9530000000	53
98.9830000000	43
99.0130000000	41
99.0430000000	42
99.0730000000	52
99.1030000000	50
99.1330000000	54
99.1630000000	36
99.1930000000	32
99.2230000000	33
99.2530000000	32
99.2830000000	45
99.3130000000	33
99.3430000000	35
99.3730000000	39
99.4030000000	33
99.4330000000	36
99.4630000000	31
99.4930000000	32
99.5230000000	42
99.5530000000	40
99.5830000000	30
99.6130000000	38
99.6430000000	37
99.6730000000	39
99.7030000000	24
99.7330000000	37
99.7630000000	30
99.7930000000	40
99.8230000000	33
99.8530000000	31
99.8830000000	41
99.9130000000	36
99.9430000000	43
99.9730000000	43
100.0030000000	40
100.0330000000	34
100.0630000000	27
100.0930000000	23
100.1230000000	27
100.1530000000	36
100.1830000000	35
100.2130000000	32
100.2430000000	39
100.2730000000	35
100.3030000000	44
100.3330000000	35
100.3630000000	46
100.3930000000	44
100.4230000000	29
100.4530000000	34
100.4830000000	39
100.5130000000	33
100.5430000000	36
100.5730000000	34
100.6030000000	39
100.6330000000	35
100.6630000000	28
100.6930000000	39
100.7230000000	40
100.7530000000	41
100.7830000000	35
100.8130000000	29
100.8430000000	34
100.8730000000	28
100.9030000000	27
100.9330000000	32
100.9630000000	36
100.9930000000	38
101.0230000000	32
101.0530000000	44
101.0830000000	35
101.1130000000	31
101.1430000000	30
101.1730000000	33
101.2030000000	36
101.2330000000	32
101.2630000000	26
101.2930000000	31
101.3230000000	31
101.3530000000	40
101.3830000000	36
101.4130000000	33
101.4430000000	40
101.4730000000	34
101.5030000000	32
101.5330000000	29
101.5630000000	28
101.5930000000	35
101.6230000000	36
101.6530000000	31
101.6830000000	30
101.7130000000	33
101.7430000000	30
101.7730000000	35
101.8030000000	40
101.8330000000	39
101.8630000000	32
101.8930000000	31
101.9230000000	41
101.9530000000	40
101.9830000000	35
102.0130000000	39
102.0430000000	34
102.0730000000	31
102.1030000000	42
102.1330000000	34
102.1630000000	30
102.1930000000	45
102.2230000000	32
102.2530000000	25
102.2830000000	30
102.3130000000	43
102.3430000000	36
102.3730000000	29
102.4030000000	31
102.4330000000	34
102.4630000000	42
102.4930000000	36
102.5230000000	29
102.5530000000	36
102.5830000000	30
102.6130000000	35
102.6430000000	38
102.6730000000	44
102.7030000000	22
102.7330000000	28
102.7630000000	29
102.7930000000	34
102.8230000000	33
102.8530000000	31
102.8830000000	35
102.9130000000	37
102.9430000000	32
102.9730000000	36
103.0030000000	47
103.0330000000	36
103.0630000000	37
103.0930000000	33
103.1230000000	28
103.1530000000	31
103.1830000000	32
103.2130000000	29
103.2430000000	37
103.2730000000	44
103.3030000000	41
103.3330000000	37
103.3630000000	26
103.3930000000	40
103.4230000000	44
103.4530000000	37
103.4830000000	32
103.5130000000	37
103.5430000000	36
103.5730000000	31
103.6030000000	46
103.6330000000	35
103.6630000000	41
103.6930000000	35
103.7230000000	46
103.7530000000	25
103.7830000000	24
103.8130000000	40
103.8430000000	41
103.8730000000	27
103.9030000000	37
103.9330000000	29
103.9630000000	34
103.9930000000	22
104.0230000000	43
104.0530000000	46
104.0830000000	46
104.1130000000	54
104.1430000000	52
104.1730000000	47
104.2030000000	33
104.2330000000	46
104.2630000000	42
104.2930000000	36
104.3230000000	42
104.3530000000	41
104.3830000000	45
104.4130000000	47
104.4430000000	51
104.4730000000	38
104.5030000000	33
104.5330000000	47
104.5630000000	32
104.5930000000	37
104.6230000000	36
104.6530000000	38
104.6830000000	43
104.7130000000	46
104.7430000000	30
104.7730000000	33
104.8030000000	35
104.8330000000	31
104.8630000000	34
104.8930000000	36
104.9230000000	35
104.9530000000	38
104.9830000000	40
105.0130000000	50
105.0430000000	49
105.0730000000	40
105.1030000000	35
105.1330000000	40
105.1630000000	47
105.1930000000	38
105.2230000000	33
105.2530000000	44
105.2830000000	44
105.3130000000	33
105.3430000000	39
105.3730000000	38
105.4030000000	43
105.4330000000	34
105.4630000000	30
105.4930000000	31
105.5230000000	38
105.5530000000	41
105.5830000000	48
105.6130000000	37
105.6430000000	38
105.6730000000	31
105.7030000000	39
105.7330000000	45
105.7630000000	39
105.7930000000	35
105.8230000000	45
105.8530000000	30
105.8830000000	33
105.9130000000	37
105.9430000000	46
105.9730000000	35
106.0030000000	35
106.0330000000	36
106.0630000000	25
106.0930000000	42
106.1230000000	33
106.1530000000	31
106.1830000000	21
106.2130000000	36
106.2430000000	32
106.2730000000	28
106.3030000000	33
106.3330000000	31
106.3630000000	36
106.3930000000	39
106.4230000000	24
106.4530000000	36
106.4830000000	34
106.5130000000	45
106.5430000000	34
106.5730000000	38
106.6030000000	46
106.6330000000	46
106.6630000000	35
106.6930000000	36
106.7230000000	42
106.7530000000	30
106.7830000000	41
106.8130000000	33
106.8430000000	30
106.8730000000	37
106.9030000000	31
106.9330000000	22
106.9630000000	45
106.9930000000	32
107.0230000000	34
107.0530000000	35
107.0830000000	36
107.1130000000	36
107.1430000000	38
107.1730000000	37
107.2030000000	36
107.2330000000	33
107.2630000000	28
107.2930000000	35
107.3230000000	40
107.3530000000	42
107.3830000000	26
107.4130000000	32
107.4430000000	38
107.4730000000	28
107.5030000000	36
107.5330000000	35
107.5630000000	29
107.5930000000	33
107.6230000000	34
107.6530000000	39
107.6830000000	46
107.7130000000	35
107.7430000000	35
107.7730000000	41
107.8030000000	35
107.8330000000	31
107.8630000000	38
107.8930000000	39
107.9230000000	33
107.9530000000	37
107.9830000000	45
108.0130000000	36
108.0430000000	33
108.0730000000	40
108.1030000000	36
108.1330000000	41
108.1630000000	27
108.1930000000	42
108.2230000000	36
108.2530000000	44
108.2830000000	37
108.3130000000	39
108.3430000000	38
108.3730000000	41
108.4030000000	45
108.4330000000	42
108.4630000000	48
108.4930000000	44
108.5230000000	34
108.5530000000	37
108.5830000000	39
108.6130000000	40
108.6430000000	41
108.6730000000	42
108.7030000000	59
108.7330000000	49
108.7630000000	54
108.7930000000	44
108.8230000000	45
108.8530000000	48
108.8830000000	54
108.9130000000	64
108.9430000000	55
108.9730000000	55
109.0030000000	62
109.0330000000	70
109.0630000000	55
109.0930000000	64
109.1230000000	55
109.1530000000	43
109.1830000000	37
109.2130000000	50
109.2430000000	44
109.2730000000	48
109.3030000000	54
109.3330000000	45
109.3630000000	55
109.3930000000	48
109.4230000000	35
109.4530000000	44
109.4830000000	34
109.5130000000	38
109.5430000000	40
109.5730000000	36
109.6030000000	36
109.6330000000	38
109.6630000000	34
109.6930000000	39
109.7230000000	40
109.7530000000	37
109.7830000000	26
109.8130000000	38
109.8430000000	44
109.8730000000	28
109.9030000000	33
109.9330000000	34
109.9630000000	40
109.9930000000	34
110.0230000000	36
110.0530000000	36
110.0830000000	33
110.1130000000	30
110.1430000000	29
110.1730000000	39
110.2030000000	35
110.2330000000	41
110.2630000000	36
110.2930000000	39
110.3230000000	37
110.3530000000	41
110.3830000000	42
110.4130000000	32
110.4430000000	39
110.4730000000	23
110.5030000000	33
110.5330000000	32
110.5630000000	30
110.5930000000	39
110.6230000000	35
110.6530000000	34
110.6830000000	34
110.7130000000	33
110.7430000000	38
110.7730000000	34
110.8030000000	28
110.8330000000	38
110.8630000000	31
110.8930000000	38
110.9230000000	37
110.9530000000	35
110.9830000000	37
111.0130000000	43
111.0430000000	49
111.0730000000	44
111.1030000000	49
111.1330000000	45
111.1630000000	35
111.1930000000	42
111.2230000000	44
111.2530000000	35
111.2830000000	36
111.3130000000	37
111.3430000000	55
111.3730000000	34
111.4030000000	40
111.4330000000	40
111.4630000000	48
111.4930000000	37
111.5230000000	37
111.5530000000	44
111.5830000000	31
111.6130000000	32
111.6430000000	47
111.6730000000	42
111.7030000000	35
111.7330000000	33
111.7630000000	34
111.7930000000	33
111.8230000000	43
111.8530000000	35
111.8830000000	40
111.9130000000	30
111.9430000000	34
111.9730000000	35
112.0030000000	35
112.0330000000	31
112.0630000000	29
112.0930000000	33
112.1230000000	44
112.1530000000	36
112.1830000000	33
112.2130000000	36
112.2430000000	33
112.2730000000	46
112.3030000000	31
112.3330000000	32
112.3630000000	28
112.3930000000	36
112.4230000000	44
112.4530000000	33
112.4830000000	44
112.5130000000	36
112.5430000000	42
112.5730000000	40
112.6030000000	36
112.6330000000	25
112.6630000000	33
112.6930000000	34
112.7230000000	31
112.7530000000	27
112.7830000000	28
112.8130000000	44
112.8430000000	39
112.8730000000	39
112.9030000000	25
112.9330000000	28
112.9630000000	48
112.9930000000	39
113.0230000000	40
113.0530000000	40
113.0830000000	36
113.1130000000	37
113.1430000000	44
113.1730000000	27
113.2030000000	36
113.2330000000	36
113.2630000000	30
113.2930000000	27
113.3230000000	33
113.3530000000	46
113.3830000000	42
113.4130000000	40
113.4430000000	43
113.4730000000	33
113.5030000000	34
113.5330000000	40
113.5630000000	35
113.5930000000	36
113.6230000000	31
113.6530000000	33
113.6830000000	40
113.7130000000	45
113.7430000000	37
113.7730000000	34
113.8030000000	43
113.8330000000	35
113.8630000000	34
113.8930000000	40
113.9230000000	35
113.9530000000	32
113.9830000000	35
114.0130000000	32
114.0430000000	41
114.0730000000	42
114.1030000000	36
114.1330000000	36
114.1630000000	39
114.1930000000	39
114.2230000000	34
114.2530000000	38
114.2830000000	45
114.3130000000	41
114.3430000000	30
114.3730000000	32
114.4030000000	40
114.4330000000	34
114.4630000000	1
114.4930000000	1
114.5230000000	1
114.5530000000	1
114.5830000000	1
