0.3130000000	1
0.3430000000	2
0.3730000000	2
0.4030000000	1
0.4330000000	1
0.4630000000	1
0.4930000000	1
0.5230000000	1
0.5530000000	1
0.5830000000	1
0.6130000000	1
0.6430000000	1
0.6730000000	1
0.7030000000	1
0.7330000000	1
0.7630000000	1
0.7930000000	1
0.8230000000	1
0.8530000000	1
0.8830000000	1
0.9130000000	1
0.9430000000	1
0.9730000000	1
1.0030000000	2
1.0330000000	1
1.0630000000	1
1.0930000000	1
1.1230000000	1
1.1530000000	1
1.1830000000	1
1.2130000000	1
1.2430000000	1
1.2730000000	2
1.3030000000	1
1.3330000000	1
1.3630000000	1
1.3930000000	1
1.4230000000	1
1.4530000000	1
1.4830000000	1
1.5130000000	1
1.5430000000	1
1.5730000000	3
1.6030000000	2
1.6330000000	1
1.6630000000	1
1.6930000000	2
1.7230000000	1
1.7530000000	2
1.7830000000	3
1.8130000000	2
1.8430000000	3
1.8730000000	2
1.9030000000	1
1.9330000000	1
1.9630000000	1
1.9930000000	1
2.0230000000	1
2.0530000000	1
2.0830000000	1
2.1130000000	1
2.1430000000	2
2.1730000000	2
2.2030000000	1
2.2330000000	2
2.2630000000	2
2.2930000000	1
2.3230000000	1
2.3530000000	1
2.3830000000	1
2.4130000000	2
2.4430000000	2
2.4730000000	1
2.5030000000	1
2.5330000000	1
2.5630000000	1
2.5930000000	1
2.6230000000	1
2.6530000000	2
2.6830000000	2
2.7130000000	1
2.7430000000	3
2.7730000000	1
2.8030000000	2
2.8330000000	2
2.8630000000	1
2.8930000000	1
2.9230000000	2
2.9530000000	1
2.9830000000	2
3.0130000000	2
3.0430000000	3
3.0730000000	2
3.1030000000	1
3.1330000000	1
3.1630000000	2
3.1930000000	2
3.2230000000	1
3.2530000000	2
3.2830000000	2
3.3130000000	2
3.3430000000	4
3.3730000000	3
3.4030000000	3
3.4330000000	3
3.4630000000	3
3.4930000000	1
3.5230000000	3
3.5530000000	1
3.5830000000	2
3.6130000000	4
3.6430000000	2
3.6730000000	2
3.7030000000	2
3.7330000000	1
3.7630000000	3
3.7930000000	4
3.8230000000	2
3.8530000000	2
3.8830000000	4
3.9130000000	2
3.9430000000	2
3.9730000000	3
4.0030000000	4
4.0330000000	3
4.0630000000	2
4.0930000000	5
4.1230000000	2
4.1530000000	3
4.1830000000	5
4.2130000000	3
4.2430000000	2
4.2730000000	3
4.3030000000	4
4.3330000000	5
4.3630000000	4
4.3930000000	2
4.4230000000	7
4.4530000000	13
4.4830000000	10
4.5130000000	18
4.5430000000	30
4.5730000000	58
4.6030000000	78
4.6330000000	102
4.6630000000	102
4.6930000000	145
4.7230000000	136
4.7530000000	146
4.7830000000	164
4.8130000000	170
4.8430000000	142
4.8730000000	138
4.9030000000	139
4.9330000000	125
4.9630000000	135
4.9930000000	148
5.0230000000	130
5.0530000000	156
5.0830000000	123
5.1130000000	142
5.1430000000	149
5.1730000000	130
5.2030000000	124
5.2330000000	139
5.2630000000	130
5.2930000000	134
5.3230000000	148
5.3530000000	129
5.3830000000	159
5.4130000000	161
5.4430000000	118
5.4730000000	142
5.5030000000	157
5.5330000000	152
5.5630000000	150
5.5930000000	132
5.6230000000	141
5.6530000000	126
5.6830000000	155
5.7130000000	144
5.7430000000	135
5.7730000000	142
5.8030000000	148
5.8330000000	144
5.8630000000	150
5.8930000000	142
5.9230000000	137
5.9530000000	134
5.9830000000	138
6.0130000000	126
6.0430000000	128
6.0730000000	149
6.1030000000	155
6.1330000000	132
6.1630000000	146
6.1930000000	180
6.2230000000	134
6.2530000000	141
6.2830000000	160
6.3130000000	154
6.3430000000	143
6.3730000000	152
6.4030000000	137
6.4330000000	131
6.4630000000	134
6.4930000000	135
6.5230000000	158
6.5530000000	164
6.5830000000	150
6.6130000000	154
6.6430000000	156
6.6730000000	167
6.7030000000	135
6.7330000000	158
6.7630000000	153
6.7930000000	137
6.8230000000	134
6.8530000000	150
6.8830000000	164
6.9130000000	132
6.9430000000	135
6.9730000000	135
7.0030000000	155
7.0330000000	157
7.0630000000	178
7.0930000000	158
7.1230000000	160
7.1530000000	149
7.1830000000	139
7.2130000000	136
7.2430000000	149
7.2730000000	151
7.3030000000	150
7.3330000000	143
7.3630000000	161
7.3930000000	143
7.4230000000	138
7.4530000000	145
7.4830000000	143
7.5130000000	151
7.5430000000	141
7.5730000000	153
7.6030000000	150
7.6330000000	137
7.6630000000	128
7.6930000000	129
7.7230000000	151
7.7530000000	149
7.7830000000	151
7.8130000000	156
7.8430000000	146
7.8730000000	147
7.9030000000	139
7.9330000000	141
7.9630000000	142
7.9930000000	128
8.0230000000	148
8.0530000000	147
8.0830000000	134
8.1130000000	175
8.1430000000	156
8.1730000000	152
8.2030000000	145
8.2330000000	159
8.2630000000	148
8.2930000000	181
8.3230000000	134
8.3530000000	144
8.3830000000	131
8.4130000000	134
8.4430000000	163
8.4730000000	163
8.5030000000	134
8.5330000000	155
8.5630000000	169
8.5930000000	120
8.6230000000	143
8.6530000000	132
8.6830000000	134
8.7130000000	135
8.7430000000	130
8.7730000000	163
8.8030000000	142
8.8330000000	134
8.8630000000	124
8.8930000000	140
8.9230000000	121
8.9530000000	137
8.9830000000	148
9.0130000000	130
9.0430000000	159
9.0730000000	138
9.1030000000	154
9.1330000000	154
9.1630000000	145
9.1930000000	146
9.2230000000	137
9.2530000000	132
9.2830000000	148
9.3130000000	121
9.3430000000	127
9.3730000000	131
9.4030000000	137
9.4330000000	156
9.4630000000	148
9.4930000000	160
9.5230000000	160
9.5530000000	156
9.5830000000	136
9.6130000000	140
9.6430000000	153
9.6730000000	139
9.7030000000	132
9.7330000000	143
9.7630000000	160
9.7930000000	170
9.8230000000	155
9.8530000000	172
9.8830000000	142
9.9130000000	142
9.9430000000	152
9.9730000000	119
10.0030000000	142
10.0330000000	161
10.0630000000	136
10.0930000000	152
10.1230000000	132
10.1530000000	138
10.1830000000	132
10.2130000000	153
10.2430000000	135
10.2730000000	153
10.3030000000	137
10.3330000000	140
10.3630000000	157
10.3930000000	153
10.4230000000	151
10.4530000000	148
10.4830000000	153
10.5130000000	149
10.5430000000	148
10.5730000000	138
10.6030000000	143
10.6330000000	153
10.6630000000	137
10.6930000000	144
10.7230000000	146
10.7530000000	161
10.7830000000	142
10.8130000000	134
10.8430000000	158
10.8730000000	126
10.9030000000	138
10.9330000000	159
10.9630000000	168
10.9930000000	124
11.0230000000	132
11.0530000000	139
11.0830000000	157
11.1130000000	152
11.1430000000	150
11.1730000000	151
11.2030000000	138
11.2330000000	147
11.2630000000	132
11.2930000000	140
11.3230000000	158
11.3530000000	147
11.3830000000	150
11.4130000000	139
11.4430000000	135
11.4730000000	131
11.5030000000	168
11.5330000000	157
11.5630000000	146
11.5930000000	147
11.6230000000	154
11.6530000000	135
11.6830000000	141
11.7130000000	134
11.7430000000	144
11.7730000000	133
11.8030000000	147
11.8330000000	138
11.8630000000	135
11.8930000000	163
11.9230000000	162
11.9530000000	161
11.9830000000	136
12.0130000000	148
12.0430000000	138
12.0730000000	157
12.1030000000	142
12.1330000000	152
12.1630000000	161
12.1930000000	166
12.2230000000	145
12.2530000000	139
12.2830000000	148
12.3130000000	167
12.3430000000	120
12.3730000000	134
12.4030000000	154
12.4330000000	158
12.4630000000	153
12.4930000000	152
12.5230000000	141
12.5530000000	161
12.5830000000	160
12.6130000000	140
12.6430000000	131
12.6730000000	150
12.7030000000	156
12.7330000000	156
12.7630000000	148
12.7930000000	137
12.8230000000	152
12.8530000000	160
12.8830000000	158
12.9130000000	150
12.9430000000	144
12.9730000000	140
13.0030000000	135
13.0330000000	137
13.0630000000	136
13.0930000000	140
13.1230000000	147
13.1530000000	144
13.1830000000	143
13.2130000000	149
13.2430000000	143
13.2730000000	134
13.3030000000	162
13.3330000000	151
13.3630000000	136
13.3930000000	140
13.4230000000	135
13.4530000000	133
13.4830000000	154
13.5130000000	154
13.5430000000	142
13.5730000000	141
13.6030000000	140
13.6330000000	132
13.6630000000	137
13.6930000000	129
13.7230000000	141
13.7530000000	133
13.7830000000	145
13.8130000000	163
13.8430000000	127
13.8730000000	141
13.9030000000	153
13.9330000000	137
13.9630000000	142
13.9930000000	137
14.0230000000	152
14.0530000000	149
14.0830000000	152
14.1130000000	141
14.1430000000	139
14.1730000000	124
14.2030000000	131
14.2330000000	145
14.2630000000	128
14.2930000000	144
14.3230000000	162
14.3530000000	154
14.3830000000	159
14.4130000000	149
14.4430000000	142
14.4730000000	181
14.5030000000	135
14.5330000000	146
14.5630000000	136
14.5930000000	151
14.6230000000	137
14.6530000000	158
14.6830000000	148
14.7130000000	169
14.7430000000	154
14.7730000000	153
14.8030000000	123
14.8330000000	150
14.8630000000	152
14.8930000000	145
14.9230000000	150
14.9530000000	131
14.9830000000	155
15.0130000000	156
15.0430000000	145
15.0730000000	137
15.1030000000	164
15.1330000000	163
15.1630000000	144
15.1930000000	151
15.2230000000	137
15.2530000000	161
15.2830000000	145
15.3130000000	148
15.3430000000	155
15.3730000000	153
15.4030000000	169
15.4330000000	141
15.4630000000	144
15.4930000000	145
15.5230000000	121
15.5530000000	148
15.5830000000	153
15.6130000000	134
15.6430000000	125
15.6730000000	171
15.7030000000	140
15.7330000000	133
15.7630000000	127
15.7930000000	151
15.8230000000	141
15.8530000000	154
15.8830000000	149
15.9130000000	140
15.9430000000	154
15.9730000000	154
16.0030000000	155
16.0330000000	132
16.0630000000	141
16.0930000000	165
16.1230000000	152
16.1530000000	151
16.1830000000	133
16.2130000000	136
16.2430000000	138
16.2730000000	129
16.3030000000	137
16.3330000000	140
16.3630000000	161
16.3930000000	171
16.4230000000	132
16.4530000000	142
16.4830000000	149
16.5130000000	148
16.5430000000	143
16.5730000000	143
16.6030000000	154
16.6330000000	150
16.6630000000	141
16.6930000000	146
16.7230000000	144
16.7530000000	132
16.7830000000	154
16.8130000000	139
16.8430000000	141
16.8730000000	142
16.9030000000	144
16.9330000000	146
16.9630000000	153
16.9930000000	151
17.0230000000	144
17.0530000000	148
17.0830000000	151
17.1130000000	148
17.1430000000	137
17.1730000000	147
17.2030000000	136
17.2330000000	147
17.2630000000	144
17.2930000000	127
17.3230000000	152
17.3530000000	155
17.3830000000	140
17.4130000000	144
17.4430000000	144
17.4730000000	147
17.5030000000	143
17.5330000000	135
17.5630000000	141
17.5930000000	139
17.6230000000	139
17.6530000000	139
17.6830000000	129
17.7130000000	137
17.7430000000	151
17.7730000000	176
17.8030000000	163
17.8330000000	151
17.8630000000	151
17.8930000000	134
17.9230000000	142
17.9530000000	149
17.9830000000	142
18.0130000000	135
18.0430000000	132
18.0730000000	143
18.1030000000	132
18.1330000000	119
18.1630000000	137
18.1930000000	146
18.2230000000	153
18.2530000000	152
18.2830000000	163
18.3130000000	119
18.3430000000	153
18.3730000000	153
18.4030000000	139
18.4330000000	135
18.4630000000	144
18.4930000000	131
18.5230000000	138
18.5530000000	141
18.5830000000	131
18.6130000000	155
18.6430000000	155
18.6730000000	149
18.7030000000	167
18.7330000000	131
18.7630000000	141
18.7930000000	160
18.8230000000	162
18.8530000000	159
18.8830000000	161
18.9130000000	158
18.9430000000	154
18.9730000000	151
19.0030000000	145
19.0330000000	133
19.0630000000	139
19.0930000000	149
19.1230000000	135
19.1530000000	159
19.1830000000	148
19.2130000000	152
19.2430000000	149
19.2730000000	148
19.3030000000	166
19.3330000000	156
19.3630000000	157
19.3930000000	154
19.4230000000	167
19.4530000000	137
19.4830000000	172
19.5130000000	143
19.5430000000	164
19.5730000000	121
19.6030000000	145
19.6330000000	147
19.6630000000	146
19.6930000000	177
19.7230000000	144
19.7530000000	149
19.7830000000	149
19.8130000000	155
19.8430000000	149
19.8730000000	131
19.9030000000	171
19.9330000000	187
19.9630000000	164
19.9930000000	146
20.0230000000	140
20.0530000000	161
20.0830000000	170
20.1130000000	142
20.1430000000	152
20.1730000000	164
20.2030000000	165
20.2330000000	184
20.2630000000	148
20.2930000000	164
20.3230000000	150
20.3530000000	165
20.3830000000	160
20.4130000000	189
20.4430000000	176
20.4730000000	185
20.5030000000	212
20.5330000000	179
20.5630000000	169
20.5930000000	214
20.6230000000	195
20.6530000000	242
20.6830000000	335
20.7130000000	480
20.7430000000	965
20.7730000000	1475
20.8030000000	2190
20.8330000000	3383
20.8630000000	5689
20.8930000000	8389
20.9230000000	9071
20.9530000000	7075
20.9830000000	4160
21.0130000000	2419
21.0430000000	1437
21.0730000000	941
21.1030000000	518
21.1330000000	366
21.1630000000	252
21.1930000000	225
21.2230000000	201
21.2530000000	172
21.2830000000	186
21.3130000000	160
21.3430000000	175
21.3730000000	161
21.4030000000	173
21.4330000000	157
21.4630000000	156
21.4930000000	133
21.5230000000	162
21.5530000000	171
21.5830000000	177
21.6130000000	179
21.6430000000	183
21.6730000000	166
21.7030000000	165
21.7330000000	179
21.7630000000	165
21.7930000000	161
21.8230000000	154
21.8530000000	159
21.8830000000	154
21.9130000000	140
21.9430000000	157
21.9730000000	174
22.0030000000	165
22.0330000000	144
22.0630000000	170
22.0930000000	156
22.1230000000	144
22.1530000000	143
22.1830000000	158
22.2130000000	175
22.2430000000	158
22.2730000000	170
22.3030000000	187
22.3330000000	160
22.3630000000	156
22.3930000000	183
22.4230000000	179
22.4530000000	175
22.4830000000	175
22.5130000000	168
22.5430000000	163
22.5730000000	164
22.6030000000	166
22.6330000000	163
22.6630000000	174
22.6930000000	183
22.7230000000	173
22.7530000000	167
22.7830000000	198
22.8130000000	164
22.8430000000	173
22.8730000000	153
22.9030000000	167
22.9330000000	175
22.9630000000	180
22.9930000000	167
23.0230000000	132
23.0530000000	169
23.0830000000	178
23.1130000000	179
23.1430000000	181
23.1730000000	166
23.2030000000	183
23.2330000000	158
23.2630000000	171
23.2930000000	163
23.3230000000	158
23.3530000000	154
23.3830000000	168
23.4130000000	165
23.4430000000	177
23.4730000000	165
23.5030000000	156
23.5330000000	176
23.5630000000	185
23.5930000000	161
23.6230000000	170
23.6530000000	175
23.6830000000	159
23.7130000000	159
23.7430000000	182
23.7730000000	178
23.8030000000	174
23.8330000000	169
23.8630000000	144
23.8930000000	170
23.9230000000	180
23.9530000000	157
23.9830000000	179
24.0130000000	165
24.0430000000	175
24.0730000000	187
24.1030000000	156
24.1330000000	164
24.1630000000	175
24.1930000000	148
24.2230000000	152
24.2530000000	184
24.2830000000	159
24.3130000000	187
24.3430000000	160
24.3730000000	184
24.4030000000	187
24.4330000000	198
24.4630000000	166
24.4930000000	189
24.5230000000	166
24.5530000000	156
24.5830000000	163
24.6130000000	169
24.6430000000	157
24.6730000000	152
24.7030000000	147
24.7330000000	169
24.7630000000	190
24.7930000000	167
24.8230000000	158
24.8530000000	178
24.8830000000	172
24.9130000000	178
24.9430000000	174
24.9730000000	140
25.0030000000	172
25.0330000000	187
25.0630000000	173
25.0930000000	154
25.1230000000	173
25.1530000000	179
25.1830000000	187
25.2130000000	168
25.2430000000	164
25.2730000000	168
25.3030000000	179
25.3330000000	165
25.3630000000	160
25.3930000000	140
25.4230000000	172
25.4530000000	163
25.4830000000	203
25.5130000000	222
25.5430000000	225
25.5730000000	256
25.6030000000	253
25.6330000000	258
25.6630000000	205
25.6930000000	210
25.7230000000	160
25.7530000000	162
25.7830000000	196
25.8130000000	159
25.8430000000	157
25.8730000000	162
25.9030000000	169
25.9330000000	151
25.9630000000	154
25.9930000000	135
26.0230000000	171
26.0530000000	180
26.0830000000	157
26.1130000000	171
26.1430000000	167
26.1730000000	181
26.2030000000	169
26.2330000000	148
26.2630000000	143
26.2930000000	166
26.3230000000	170
26.3530000000	164
26.3830000000	191
26.4130000000	161
26.4430000000	170
26.4730000000	187
26.5030000000	176
26.5330000000	158
26.5630000000	161
26.5930000000	158
26.6230000000	147
26.6530000000	147
26.6830000000	155
26.7130000000	140
26.7430000000	141
26.7730000000	173
26.8030000000	169
26.8330000000	148
26.8630000000	154
26.8930000000	139
26.9230000000	141
26.9530000000	157
26.9830000000	157
27.0130000000	169
27.0430000000	163
27.0730000000	132
27.1030000000	140
27.1330000000	163
27.1630000000	153
27.1930000000	148
27.2230000000	157
27.2530000000	154
27.2830000000	155
27.3130000000	154
27.3430000000	166
27.3730000000	166
27.4030000000	154
27.4330000000	146
27.4630000000	149
27.4930000000	156
27.5230000000	130
27.5530000000	152
27.5830000000	143
27.6130000000	165
27.6430000000	142
27.6730000000	136
27.7030000000	159
27.7330000000	162
27.7630000000	155
27.7930000000	148
27.8230000000	152
27.8530000000	155
27.8830000000	145
27.9130000000	171
27.9430000000	147
27.9730000000	155
28.0030000000	155
28.0330000000	157
28.0630000000	157
28.0930000000	160
28.1230000000	158
28.1530000000	164
28.1830000000	141
28.2130000000	137
28.2430000000	170
28.2730000000	172
28.3030000000	163
28.3330000000	150
28.3630000000	173
28.3930000000	146
28.4230000000	171
28.4530000000	156
28.4830000000	158
28.5130000000	138
28.5430000000	161
28.5730000000	143
28.6030000000	155
28.6330000000	174
28.6630000000	148
28.6930000000	131
28.7230000000	133
28.7530000000	139
28.7830000000	150
28.8130000000	174
28.8430000000	133
28.8730000000	142
28.9030000000	151
28.9330000000	128
28.9630000000	157
28.9930000000	137
29.0230000000	144
29.0530000000	164
29.0830000000	124
29.1130000000	158
29.1430000000	134
29.1730000000	139
29.2030000000	150
29.2330000000	149
29.2630000000	146
29.2930000000	148
29.3230000000	133
29.3530000000	118
29.3830000000	126
29.4130000000	141
29.4430000000	116
29.4730000000	133
29.5030000000	125
29.5330000000	104
29.5630000000	126
29.5930000000	144
29.6230000000	127
29.6530000000	140
29.6830000000	114
29.7130000000	139
29.7430000000	145
29.7730000000	145
29.8030000000	142
29.8330000000	141
29.8630000000	130
29.8930000000	160
29.9230000000	137
29.9530000000	153
29.9830000000	146
30.0130000000	140
30.0430000000	151
30.0730000000	146
30.1030000000	139
30.1330000000	131
30.1630000000	149
30.1930000000	140
30.2230000000	138
30.2530000000	124
30.2830000000	125
30.3130000000	135
30.3430000000	152
30.3730000000	154
30.4030000000	143
30.4330000000	129
30.4630000000	108
30.4930000000	152
30.5230000000	151
30.5530000000	121
30.5830000000	136
30.6130000000	135
30.6430000000	127
30.6730000000	129
30.7030000000	153
30.7330000000	129
30.7630000000	130
30.7930000000	110
30.8230000000	125
30.8530000000	108
30.8830000000	158
30.9130000000	141
30.9430000000	136
30.9730000000	137
31.0030000000	135
31.0330000000	116
31.0630000000	141
31.0930000000	139
31.1230000000	138
31.1530000000	147
31.1830000000	148
31.2130000000	136
31.2430000000	130
31.2730000000	137
31.3030000000	121
31.3330000000	138
31.3630000000	130
31.3930000000	143
31.4230000000	148
31.4530000000	130
31.4830000000	146
31.5130000000	140
31.5430000000	121
31.5730000000	122
31.6030000000	130
31.6330000000	121
31.6630000000	133
31.6930000000	129
31.7230000000	141
31.7530000000	139
31.7830000000	126
31.8130000000	125
31.8430000000	147
31.8730000000	127
31.9030000000	139
31.9330000000	112
31.9630000000	119
31.9930000000	138
32.0230000000	113
32.0530000000	143
32.0830000000	140
32.1130000000	112
32.1430000000	126
32.1730000000	125
32.2030000000	127
32.2330000000	127
32.2630000000	121
32.2930000000	113
32.3230000000	120
32.3530000000	128
32.3830000000	139
32.4130000000	125
32.4430000000	113
32.4730000000	118
32.5030000000	108
32.5330000000	147
32.5630000000	142
32.5930000000	122
32.6230000000	115
32.6530000000	124
32.6830000000	136
32.7130000000	129
32.7430000000	128
32.7730000000	127
32.8030000000	158
32.8330000000	150
32.8630000000	153
32.8930000000	141
32.9230000000	166
32.9530000000	195
32.9830000000	222
33.0130000000	268
33.0430000000	350
33.0730000000	554
33.1030000000	1042
33.1330000000	1559
33.1630000000	2376
33.1930000000	3733
33.2230000000	5860
33.2530000000	7975
33.2830000000	8155
33.3130000000	6408
33.3430000000	4146
33.3730000000	2461
33.4030000000	1455
33.4330000000	877
33.4630000000	525
33.4930000000	347
33.5230000000	249
33.5530000000	217
33.5830000000	176
33.6130000000	159
33.6430000000	153
33.6730000000	138
33.7030000000	136
33.7330000000	151
33.7630000000	134
33.7930000000	134
33.8230000000	129
33.8530000000	127
33.8830000000	116
33.9130000000	128
33.9430000000	135
33.9730000000	144
34.0030000000	114
34.0330000000	128
34.0630000000	125
34.0930000000	123
34.1230000000	119
34.1530000000	121
34.1830000000	113
34.2130000000	106
34.2430000000	117
34.2730000000	125
34.3030000000	121
34.3330000000	116
34.3630000000	116
34.3930000000	113
34.4230000000	106
34.4530000000	106
34.4830000000	114
34.5130000000	103
34.5430000000	97
34.5730000000	97
34.6030000000	107
34.6330000000	124
34.6630000000	120
34.6930000000	117
34.7230000000	102
34.7530000000	123
34.7830000000	116
34.8130000000	117
34.8430000000	100
34.8730000000	115
34.9030000000	111
34.9330000000	98
34.9630000000	128
34.9930000000	123
35.0230000000	105
35.0530000000	107
35.0830000000	101
35.1130000000	93
35.1430000000	104
35.1730000000	109
35.2030000000	112
35.2330000000	109
35.2630000000	115
35.2930000000	102
35.3230000000	102
35.3530000000	113
35.3830000000	107
35.4130000000	97
35.4430000000	96
35.4730000000	100
35.5030000000	95
35.5330000000	105
35.5630000000	106
35.5930000000	92
35.6230000000	85
35.6530000000	86
35.6830000000	94
35.7130000000	118
35.7430000000	113
35.7730000000	103
35.8030000000	98
35.8330000000	94
35.8630000000	99
35.8930000000	105
35.9230000000	95
35.9530000000	116
35.9830000000	109
36.0130000000	94
36.0430000000	89
36.0730000000	101
36.1030000000	104
36.1330000000	98
36.1630000000	101
36.1930000000	105
36.2230000000	95
36.2530000000	107
36.2830000000	117
36.3130000000	124
36.3430000000	131
36.3730000000	161
36.4030000000	223
36.4330000000	246
36.4630000000	259
36.4930000000	291
36.5230000000	261
36.5530000000	200
36.5830000000	153
36.6130000000	148
36.6430000000	133
36.6730000000	107
36.7030000000	119
36.7330000000	111
36.7630000000	105
36.7930000000	113
36.8230000000	102
36.8530000000	117
36.8830000000	98
36.9130000000	88
36.9430000000	103
36.9730000000	98
37.0030000000	84
37.0330000000	81
37.0630000000	96
37.0930000000	95
37.1230000000	78
37.1530000000	100
37.1830000000	103
37.2130000000	86
37.2430000000	93
37.2730000000	95
37.3030000000	89
37.3330000000	75
37.3630000000	94
37.3930000000	100
37.4230000000	100
37.4530000000	96
37.4830000000	91
37.5130000000	91
37.5430000000	100
37.5730000000	112
37.6030000000	98
37.6330000000	92
37.6630000000	97
37.6930000000	101
37.7230000000	94
37.7530000000	88
37.7830000000	86
37.8130000000	95
37.8430000000	87
37.8730000000	92
37.9030000000	111
37.9330000000	100
37.9630000000	95
37.9930000000	95
38.0230000000	90
38.0530000000	79
38.0830000000	66
38.1130000000	99
38.1430000000	99
38.1730000000	98
38.2030000000	118
38.2330000000	105
38.2630000000	102
38.2930000000	93
38.3230000000	85
38.3530000000	95
38.3830000000	113
38.4130000000	115
38.4430000000	102
38.4730000000	89
38.5030000000	93
38.5330000000	101
38.5630000000	99
38.5930000000	93
38.6230000000	92
38.6530000000	100
38.6830000000	95
38.7130000000	84
38.7430000000	92
38.7730000000	90
38.8030000000	95
38.8330000000	102
38.8630000000	97
38.8930000000	119
38.9230000000	116
38.9530000000	86
38.9830000000	81
39.0130000000	93
39.0430000000	104
39.0730000000	78
39.1030000000	105
39.1330000000	99
39.1630000000	85
39.1930000000	87
39.2230000000	97
39.2530000000	96
39.2830000000	84
39.3130000000	86
39.3430000000	79
39.3730000000	90
39.4030000000	96
39.4330000000	96
39.4630000000	91
39.4930000000	84
39.5230000000	106
39.5530000000	88
39.5830000000	86
39.6130000000	68
39.6430000000	88
39.6730000000	90
39.7030000000	117
39.7330000000	95
39.7630000000	99
39.7930000000	107
39.8230000000	80
39.8530000000	77
39.8830000000	104
39.9130000000	90
39.9430000000	98
39.9730000000	111
40.0030000000	93
40.0330000000	94
40.0630000000	96
40.0930000000	86
40.1230000000	97
40.1530000000	89
40.1830000000	99
40.2130000000	80
40.2430000000	92
40.2730000000	93
40.3030000000	85
40.3330000000	90
40.3630000000	101
40.3930000000	102
40.4230000000	97
40.4530000000	91
40.4830000000	92
40.5130000000	98
40.5430000000	92
40.5730000000	77
40.6030000000	97
40.6330000000	77
40.6630000000	113
40.6930000000	96
40.7230000000	102
40.7530000000	116
40.7830000000	115
40.8130000000	117
40.8430000000	120
40.8730000000	183
40.9030000000	186
40.9330000000	270
40.9630000000	342
40.9930000000	423
41.0230000000	497
41.0530000000	451
41.0830000000	392
41.1130000000	281
41.1430000000	167
41.1730000000	152
41.2030000000	139
41.2330000000	112
41.2630000000	117
41.2930000000	110
41.3230000000	120
41.3530000000	95
41.3830000000	102
41.4130000000	93
41.4430000000	90
41.4730000000	85
41.5030000000	82
41.5330000000	102
41.5630000000	95
41.5930000000	90
41.6230000000	91
41.6530000000	93
41.6830000000	113
41.7130000000	97
41.7430000000	83
41.7730000000	83
41.8030000000	102
41.8330000000	101
41.8630000000	97
41.8930000000	95
41.9230000000	84
41.9530000000	102
41.9830000000	88
42.0130000000	83
42.0430000000	115
42.0730000000	113
42.1030000000	95
42.1330000000	111
42.1630000000	98
42.1930000000	100
42.2230000000	112
42.2530000000	123
42.2830000000	129
42.3130000000	158
42.3430000000	185
42.3730000000	213
42.4030000000	250
42.4330000000	262
42.4630000000	294
42.4930000000	320
42.5230000000	325
42.5530000000	304
42.5830000000	254
42.6130000000	216
42.6430000000	187
42.6730000000	137
42.7030000000	108
42.7330000000	114
42.7630000000	112
42.7930000000	113
42.8230000000	105
42.8530000000	97
42.8830000000	106
42.9130000000	97
42.9430000000	89
42.9730000000	79
43.0030000000	82
43.0330000000	99
43.0630000000	92
43.0930000000	89
43.1230000000	107
43.1530000000	95
43.1830000000	88
43.2130000000	108
43.2430000000	81
43.2730000000	89
43.3030000000	92
43.3330000000	87
43.3630000000	105
43.3930000000	91
43.4230000000	85
43.4530000000	83
43.4830000000	83
43.5130000000	82
43.5430000000	85
43.5730000000	89
43.6030000000	97
43.6330000000	88
43.6630000000	87
43.6930000000	89
43.7230000000	100
43.7530000000	108
43.7830000000	96
43.8130000000	85
43.8430000000	80
43.8730000000	89
43.9030000000	83
43.9330000000	90
43.9630000000	96
43.9930000000	85
44.0230000000	89
44.0530000000	90
44.0830000000	87
44.1130000000	87
44.1430000000	93
44.1730000000	76
44.2030000000	67
44.2330000000	62
44.2630000000	93
44.2930000000	78
44.3230000000	93
44.3530000000	95
44.3830000000	96
44.4130000000	76
44.4430000000	81
44.4730000000	80
44.5030000000	74
44.5330000000	97
44.5630000000	101
44.5930000000	90
44.6230000000	99
44.6530000000	91
44.6830000000	81
44.7130000000	104
44.7430000000	94
44.7730000000	90
44.8030000000	81
44.8330000000	86
44.8630000000	82
44.8930000000	71
44.9230000000	88
44.9530000000	74
44.9830000000	99
45.0130000000	87
45.0430000000	75
45.0730000000	83
45.1030000000	91
45.1330000000	76
45.1630000000	76
45.1930000000	68
45.2230000000	87
45.2530000000	87
45.2830000000	82
45.3130000000	76
45.3430000000	80
45.3730000000	78
45.4030000000	80
45.4330000000	80
45.4630000000	86
45.4930000000	86
45.5230000000	91
45.5530000000	99
45.5830000000	86
45.6130000000	76
45.6430000000	76
45.6730000000	88
45.7030000000	103
45.7330000000	81
45.7630000000	69
45.7930000000	100
45.8230000000	70
45.8530000000	75
45.8830000000	81
45.9130000000	84
45.9430000000	83
45.9730000000	86
46.0030000000	92
46.0330000000	85
46.0630000000	88
46.0930000000	81
46.1230000000	70
46.1530000000	77
46.1830000000	69
46.2130000000	77
46.2430000000	73
46.2730000000	80
46.3030000000	82
46.3330000000	80
46.3630000000	93
46.3930000000	96
46.4230000000	117
46.4530000000	103
46.4830000000	133
46.5130000000	141
46.5430000000	96
46.5730000000	123
46.6030000000	94
46.6330000000	90
46.6630000000	81
46.6930000000	84
46.7230000000	87
46.7530000000	83
46.7830000000	77
46.8130000000	87
46.8430000000	85
46.8730000000	62
46.9030000000	86
46.9330000000	72
46.9630000000	84
46.9930000000	67
47.0230000000	72
47.0530000000	70
47.0830000000	68
47.1130000000	69
47.1430000000	86
47.1730000000	67
47.2030000000	81
47.2330000000	78
47.2630000000	58
47.2930000000	81
47.3230000000	78
47.3530000000	73
47.3830000000	70
47.4130000000	67
47.4430000000	66
47.4730000000	64
47.5030000000	84
47.5330000000	76
47.5630000000	67
47.5930000000	81
47.6230000000	59
47.6530000000	73
47.6830000000	73
47.7130000000	59
47.7430000000	69
47.7730000000	78
47.8030000000	72
47.8330000000	75
47.8630000000	72
47.8930000000	75
47.9230000000	84
47.9530000000	77
47.9830000000	69
48.0130000000	74
48.0430000000	75
48.0730000000	63
48.1030000000	71
48.1330000000	69
48.1630000000	79
48.1930000000	85
48.2230000000	75
48.2530000000	68
48.2830000000	72
48.3130000000	66
48.3430000000	63
48.3730000000	75
48.4030000000	72
48.4330000000	68
48.4630000000	71
48.4930000000	68
48.5230000000	55
48.5530000000	65
48.5830000000	67
48.6130000000	64
48.6430000000	72
48.6730000000	84
48.7030000000	76
48.7330000000	72
48.7630000000	59
48.7930000000	71
48.8230000000	73
48.8530000000	61
48.8830000000	64
48.9130000000	66
48.9430000000	65
48.9730000000	63
49.0030000000	58
49.0330000000	61
49.0630000000	66
49.0930000000	59
49.1230000000	71
49.1530000000	52
49.1830000000	55
49.2130000000	61
49.2430000000	62
49.2730000000	81
49.3030000000	66
49.3330000000	56
49.3630000000	66
49.3930000000	62
49.4230000000	71
49.4530000000	74
49.4830000000	68
49.5130000000	60
49.5430000000	69
49.5730000000	70
49.6030000000	60
49.6330000000	63
49.6630000000	54
49.6930000000	54
49.7230000000	66
49.7530000000	70
49.7830000000	66
49.8130000000	68
49.8430000000	64
49.8730000000	70
49.9030000000	67
49.9330000000	62
49.9630000000	54
49.9930000000	63
50.0230000000	82
50.0530000000	66
50.0830000000	62
50.1130000000	63
50.1430000000	62
50.1730000000	72
50.2030000000	83
50.2330000000	88
50.2630000000	96
50.2930000000	89
50.3230000000	81
50.3530000000	79
50.3830000000	83
50.4130000000	78
50.4430000000	64
50.4730000000	77
50.5030000000	67
50.5330000000	69
50.5630000000	68
50.5930000000	65
50.6230000000	75
50.6530000000	69
50.6830000000	48
50.7130000000	60
50.7430000000	45
50.7730000000	50
50.8030000000	71
50.8330000000	71
50.8630000000	79
50.8930000000	68
50.9230000000	62
50.9530000000	67
50.9830000000	68
51.0130000000	74
51.0430000000	74
51.0730000000	76
51.1030000000	58
51.1330000000	60
51.1630000000	73
51.1930000000	66
51.2230000000	62
51.2530000000	57
51.2830000000	54
51.3130000000	53
51.3430000000	59
51.3730000000	65
51.4030000000	68
51.4330000000	63
51.4630000000	66
51.4930000000	60
51.5230000000	67
51.5530000000	61
51.5830000000	60
51.6130000000	64
51.6430000000	57
51.6730000000	61
51.7030000000	64
51.7330000000	59
51.7630000000	53
51.7930000000	61
51.8230000000	53
51.8530000000	43
51.8830000000	49
51.9130000000	51
51.9430000000	67
51.9730000000	63
52.0030000000	54
52.0330000000	53
52.0630000000	49
52.0930000000	62
52.1230000000	56
52.1530000000	59
52.1830000000	68
52.2130000000	63
52.2430000000	47
52.2730000000	57
52.3030000000	59
52.3330000000	50
52.3630000000	70
52.3930000000	59
52.4230000000	58
52.4530000000	53
52.4830000000	75
52.5130000000	71
52.5430000000	81
52.5730000000	75
52.6030000000	86
52.6330000000	79
52.6630000000	75
52.6930000000	71
52.7230000000	66
52.7530000000	78
52.7830000000	63
52.8130000000	56
52.8430000000	54
52.8730000000	57
52.9030000000	67
52.9330000000	55
52.9630000000	65
52.9930000000	70
53.0230000000	59
53.0530000000	54
53.0830000000	53
53.1130000000	51
53.1430000000	46
53.1730000000	51
53.2030000000	54
53.2330000000	66
53.2630000000	63
53.2930000000	50
53.3230000000	61
53.3530000000	57
53.3830000000	63
53.4130000000	54
53.4430000000	57
53.4730000000	68
53.5030000000	47
53.5330000000	56
53.5630000000	73
53.5930000000	61
53.6230000000	52
53.6530000000	56
53.6830000000	56
53.7130000000	56
53.7430000000	55
53.7730000000	58
53.8030000000	67
53.8330000000	60
53.8630000000	54
53.8930000000	53
53.9230000000	66
53.9530000000	56
53.9830000000	43
54.0130000000	69
54.0430000000	64
54.0730000000	57
54.1030000000	62
54.1330000000	48
54.1630000000	51
54.1930000000	40
54.2230000000	56
54.2530000000	54
54.2830000000	55
54.3130000000	58
54.3430000000	55
54.3730000000	46
54.4030000000	51
54.4330000000	59
54.4630000000	65
54.4930000000	68
54.5230000000	59
54.5530000000	57
54.5830000000	46
54.6130000000	44
54.6430000000	62
54.6730000000	55
54.7030000000	39
54.7330000000	66
54.7630000000	63
54.7930000000	50
54.8230000000	59
54.8530000000	53
54.8830000000	46
54.9130000000	50
54.9430000000	53
54.9730000000	74
55.0030000000	55
55.0330000000	62
55.0630000000	57
55.0930000000	53
55.1230000000	50
55.1530000000	48
55.1830000000	48
55.2130000000	56
55.2430000000	51
55.2730000000	63
55.3030000000	52
55.3330000000	47
55.3630000000	66
55.3930000000	54
55.4230000000	48
55.4530000000	66
55.4830000000	56
55.5130000000	68
55.5430000000	61
55.5730000000	54
55.6030000000	65
55.6330000000	60
55.6630000000	46
55.6930000000	54
55.7230000000	62
55.7530000000	41
55.7830000000	64
55.8130000000	70
55.8430000000	62
55.8730000000	67
55.9030000000	54
55.9330000000	54
55.9630000000	68
55.9930000000	60
56.0230000000	48
56.0530000000	60
56.0830000000	54
56.1130000000	67
56.1430000000	49
56.1730000000	42
56.2030000000	53
56.2330000000	41
56.2630000000	52
56.2930000000	49
56.3230000000	46
56.3530000000	41
56.3830000000	54
56.4130000000	48
56.4430000000	45
56.4730000000	35
56.5030000000	64
56.5330000000	52
56.5630000000	58
56.5930000000	57
56.6230000000	63
56.6530000000	51
56.6830000000	47
56.7130000000	49
56.7430000000	46
56.7730000000	57
56.8030000000	69
56.8330000000	55
56.8630000000	53
56.8930000000	62
56.9230000000	61
56.9530000000	46
56.9830000000	50
57.0130000000	64
57.0430000000	63
57.0730000000	52
57.1030000000	51
57.1330000000	57
57.1630000000	69
57.1930000000	62
57.2230000000	69
57.2530000000	73
57.2830000000	76
57.3130000000	72
57.3430000000	68
57.3730000000	58
57.4030000000	67
57.4330000000	68
57.4630000000	51
57.4930000000	59
57.5230000000	51
57.5530000000	51
57.5830000000	57
57.6130000000	45
57.6430000000	60
57.6730000000	57
57.7030000000	57
57.7330000000	47
57.7630000000	46
57.7930000000	50
57.8230000000	49
57.8530000000	48
57.8830000000	54
57.9130000000	65
57.9430000000	45
57.9730000000	45
58.0030000000	44
58.0330000000	44
58.0630000000	40
58.0930000000	44
58.1230000000	48
58.1530000000	47
58.1830000000	47
58.2130000000	50
58.2430000000	49
58.2730000000	54
58.3030000000	41
58.3330000000	41
58.3630000000	62
58.3930000000	61
58.4230000000	49
58.4530000000	53
58.4830000000	60
58.5130000000	57
58.5430000000	52
58.5730000000	42
58.6030000000	53
58.6330000000	43
58.6630000000	41
58.6930000000	56
58.7230000000	46
58.7530000000	56
58.7830000000	53
58.8130000000	54
58.8430000000	55
58.8730000000	48
58.9030000000	63
58.9330000000	49
58.9630000000	43
58.9930000000	39
59.0230000000	60
59.0530000000	43
59.0830000000	40
59.1130000000	48
59.1430000000	52
59.1730000000	40
59.2030000000	50
59.2330000000	47
59.2630000000	48
59.2930000000	51
59.3230000000	41
59.3530000000	50
59.3830000000	52
59.4130000000	38
59.4430000000	53
59.4730000000	46
59.5030000000	40
59.5330000000	47
59.5630000000	56
59.5930000000	52
59.6230000000	57
59.6530000000	53
59.6830000000	58
59.7130000000	45
59.7430000000	61
59.7730000000	51
59.8030000000	54
59.8330000000	39
59.8630000000	50
59.8930000000	50
59.9230000000	49
59.9530000000	56
59.9830000000	42
60.0130000000	53
60.0430000000	55
60.0730000000	41
60.1030000000	52
60.1330000000	38
60.1630000000	39
60.1930000000	52
60.2230000000	47
60.2530000000	50
60.2830000000	56
60.3130000000	51
60.3430000000	43
60.3730000000	52
60.4030000000	53
60.4330000000	63
60.4630000000	57
60.4930000000	62
60.5230000000	80
60.5530000000	80
60.5830000000	70
60.6130000000	67
60.6430000000	63
60.6730000000	72
60.7030000000	67
60.7330000000	49
60.7630000000	48
60.7930000000	57
60.8230000000	42
60.8530000000	54
60.8830000000	42
60.9130000000	49
60.9430000000	49
60.9730000000	51
61.0030000000	66
61.0330000000	53
61.0630000000	57
61.0930000000	62
61.1230000000	57
61.1530000000	51
61.1830000000	58
61.2130000000	55
61.2430000000	41
61.2730000000	57
61.3030000000	47
61.3330000000	46
61.3630000000	52
61.3930000000	51
61.4230000000	48
61.4530000000	42
61.4830000000	57
61.5130000000	36
61.5430000000	49
61.5730000000	55
61.6030000000	44
61.6330000000	51
61.6630000000	53
61.6930000000	44
61.7230000000	47
61.7530000000	45
61.7830000000	47
61.8130000000	43
61.8430000000	45
61.8730000000	52
61.9030000000	53
61.9330000000	51
61.9630000000	35
61.9930000000	36
62.0230000000	55
62.0530000000	33
62.0830000000	55
62.1130000000	46
62.1430000000	45
62.1730000000	48
62.2030000000	37
62.2330000000	54
62.2630000000	48
62.2930000000	37
62.3230000000	39
62.3530000000	45
62.3830000000	50
62.4130000000	47
62.4430000000	47
62.4730000000	43
62.5030000000	51
62.5330000000	45
62.5630000000	51
62.5930000000	46
62.6230000000	53
62.6530000000	44
62.6830000000	43
62.7130000000	47
62.7430000000	57
62.7730000000	48
62.8030000000	46
62.8330000000	52
62.8630000000	56
62.8930000000	49
62.9230000000	52
62.9530000000	45
62.9830000000	55
63.0130000000	58
63.0430000000	41
63.0730000000	52
63.1030000000	54
63.1330000000	49
63.1630000000	52
63.1930000000	62
63.2230000000	56
63.2530000000	58
63.2830000000	50
63.3130000000	50
63.3430000000	57
63.3730000000	53
63.4030000000	55
63.4330000000	41
63.4630000000	57
63.4930000000	62
63.5230000000	72
63.5530000000	81
63.5830000000	91
63.6130000000	107
63.6430000000	112
63.6730000000	112
63.7030000000	104
63.7330000000	89
63.7630000000	84
63.7930000000	80
63.8230000000	64
63.8530000000	52
63.8830000000	61
63.9130000000	55
63.9430000000	45
63.9730000000	46
64.0030000000	62
64.0330000000	46
64.0630000000	44
64.0930000000	53
64.1230000000	53
64.1530000000	47
64.1830000000	43
64.2130000000	46
64.2430000000	40
64.2730000000	47
64.3030000000	62
64.3330000000	54
64.3630000000	46
64.3930000000	48
64.4230000000	53
64.4530000000	38
64.4830000000	43
64.5130000000	43
64.5430000000	54
64.5730000000	53
64.6030000000	55
64.6330000000	42
64.6630000000	41
64.6930000000	44
64.7230000000	47
64.7530000000	52
64.7830000000	45
64.8130000000	36
64.8430000000	43
64.8730000000	49
64.9030000000	42
64.9330000000	42
64.9630000000	47
64.9930000000	48
65.0230000000	40
65.0530000000	41
65.0830000000	40
65.1130000000	45
65.1430000000	55
65.1730000000	45
65.2030000000	44
65.2330000000	38
65.2630000000	44
65.2930000000	47
65.3230000000	53
65.3530000000	46
65.3830000000	56
65.4130000000	41
65.4430000000	61
65.4730000000	46
65.5030000000	53
65.5330000000	46
65.5630000000	38
65.5930000000	43
65.6230000000	50
65.6530000000	38
65.6830000000	43
65.7130000000	49
65.7430000000	44
65.7730000000	49
65.8030000000	48
65.8330000000	64
65.8630000000	51
65.8930000000	56
65.9230000000	44
65.9530000000	50
65.9830000000	39
66.0130000000	31
66.0430000000	44
66.0730000000	42
66.1030000000	53
66.1330000000	53
66.1630000000	51
66.1930000000	30
66.2230000000	42
66.2530000000	46
66.2830000000	46
66.3130000000	47
66.3430000000	43
66.3730000000	46
66.4030000000	53
66.4330000000	48
66.4630000000	42
66.4930000000	42
66.5230000000	36
66.5530000000	40
66.5830000000	39
66.6130000000	34
66.6430000000	48
66.6730000000	43
66.7030000000	48
66.7330000000	42
66.7630000000	51
66.7930000000	44
66.8230000000	42
66.8530000000	47
66.8830000000	50
66.9130000000	40
66.9430000000	39
66.9730000000	49
67.0030000000	47
67.0330000000	39
67.0630000000	41
67.0930000000	51
67.1230000000	41
67.1530000000	35
67.1830000000	38
67.2130000000	38
67.2430000000	36
67.2730000000	42
67.3030000000	53
67.3330000000	63
67.3630000000	34
67.3930000000	55
67.4230000000	50
67.4530000000	42
67.4830000000	39
67.5130000000	49
67.5430000000	45
67.5730000000	47
67.6030000000	52
67.6330000000	40
67.6630000000	50
67.6930000000	53
67.7230000000	53
67.7530000000	47
67.7830000000	50
67.8130000000	47
67.8430000000	45
67.8730000000	46
67.9030000000	35
67.9330000000	41
67.9630000000	43
67.9930000000	41
68.0230000000	35
68.0530000000	46
68.0830000000	38
68.1130000000	48
68.1430000000	56
68.1730000000	47
68.2030000000	48
68.2330000000	47
68.2630000000	42
68.2930000000	47
68.3230000000	49
68.3530000000	40
68.3830000000	46
68.4130000000	51
68.4430000000	51
68.4730000000	46
68.5030000000	31
68.5330000000	56
68.5630000000	51
68.5930000000	45
68.6230000000	52
68.6530000000	53
68.6830000000	54
68.7130000000	48
68.7430000000	54
68.7730000000	49
68.8030000000	52
68.8330000000	49
68.8630000000	47
68.8930000000	50
68.9230000000	42
68.9530000000	42
68.9830000000	37
69.0130000000	52
69.0430000000	34
69.0730000000	46
69.1030000000	52
69.1330000000	43
69.1630000000	51
69.1930000000	36
69.2230000000	45
69.2530000000	40
69.2830000000	48
69.3130000000	36
69.3430000000	54
69.3730000000	46
69.4030000000	46
69.4330000000	37
69.4630000000	44
69.4930000000	48
69.5230000000	55
69.5530000000	49
69.5830000000	44
69.6130000000	49
69.6430000000	52
69.6730000000	49
69.7030000000	43
69.7330000000	44
69.7630000000	53
69.7930000000	51
69.8230000000	46
69.8530000000	49
69.8830000000	52
69.9130000000	53
69.9430000000	44
69.9730000000	44
70.0030000000	41
70.0330000000	46
70.0630000000	53
70.0930000000	50
70.1230000000	44
70.1530000000	48
70.1830000000	36
70.2130000000	35
70.2430000000	45
70.2730000000	52
70.3030000000	46
70.3330000000	49
70.3630000000	43
70.3930000000	47
70.4230000000	47
70.4530000000	58
70.4830000000	47
70.5130000000	46
70.5430000000	38
70.5730000000	47
70.6030000000	40
70.6330000000	37
70.6630000000	55
70.6930000000	47
70.7230000000	51
70.7530000000	51
70.7830000000	42
70.8130000000	52
70.8430000000	47
70.8730000000	44
70.9030000000	31
70.9330000000	41
70.9630000000	42
70.9930000000	54
71.0230000000	48
71.0530000000	45
71.0830000000	43
71.1130000000	47
71.1430000000	44
71.1730000000	41
71.2030000000	40
71.2330000000	46
71.2630000000	46
71.2930000000	58
71.3230000000	46
71.3530000000	40
71.3830000000	46
71.4130000000	38
71.4430000000	48
71.4730000000	40
71.5030000000	49
71.5330000000	36
71.5630000000	47
71.5930000000	51
71.6230000000	36
71.6530000000	42
71.6830000000	40
71.7130000000	39
71.7430000000	41
71.7730000000	36
71.8030000000	52
71.8330000000	36
71.8630000000	47
71.8930000000	54
71.9230000000	42
71.9530000000	48
71.9830000000	42
72.0130000000	47
72.0430000000	45
72.0730000000	37
72.1030000000	40
72.1330000000	53
72.1630000000	41
72.1930000000	49
72.2230000000	53
72.2530000000	36
72.2830000000	45
72.3130000000	43
72.3430000000	55
72.3730000000	26
72.4030000000	40
72.4330000000	51
72.4630000000	47
72.4930000000	43
72.5230000000	56
72.5530000000	45
72.5830000000	41
72.6130000000	46
72.6430000000	66
72.6730000000	60
72.7030000000	76
72.7330000000	76
72.7630000000	73
72.7930000000	62
72.8230000000	51
72.8530000000	65
72.8830000000	75
72.9130000000	66
72.9430000000	56
72.9730000000	47
73.0030000000	53
73.0330000000	45
73.0630000000	53
73.0930000000	54
73.1230000000	49
73.1530000000	48
73.1830000000	45
73.2130000000	49
73.2430000000	55
73.2730000000	36
73.3030000000	50
73.3330000000	50
73.3630000000	56
73.3930000000	53
73.4230000000	50
73.4530000000	39
73.4830000000	47
73.5130000000	50
73.5430000000	44
73.5730000000	54
73.6030000000	47
73.6330000000	43
73.6630000000	44
73.6930000000	49
73.7230000000	55
73.7530000000	41
73.7830000000	42
73.8130000000	51
73.8430000000	46
73.8730000000	48
73.9030000000	41
73.9330000000	53
73.9630000000	44
73.9930000000	44
74.0230000000	60
74.0530000000	37
74.0830000000	37
74.1130000000	41
74.1430000000	42
74.1730000000	75
74.2030000000	45
74.2330000000	46
74.2630000000	43
74.2930000000	44
74.3230000000	39
74.3530000000	56
74.3830000000	38
74.4130000000	59
74.4430000000	40
74.4730000000	41
74.5030000000	43
74.5330000000	46
74.5630000000	40
74.5930000000	43
74.6230000000	46
74.6530000000	45
74.6830000000	52
74.7130000000	52
74.7430000000	42
74.7730000000	44
74.8030000000	55
74.8330000000	45
74.8630000000	41
74.8930000000	38
74.9230000000	40
74.9530000000	45
74.9830000000	41
75.0130000000	56
75.0430000000	42
75.0730000000	40
75.1030000000	41
75.1330000000	41
75.1630000000	52
75.1930000000	49
75.2230000000	49
75.2530000000	45
75.2830000000	49
75.3130000000	46
75.3430000000	51
75.3730000000	51
75.4030000000	56
75.4330000000	64
75.4630000000	55
75.4930000000	58
75.5230000000	65
75.5530000000	65
75.5830000000	90
75.6130000000	98
75.6430000000	139
75.6730000000	196
75.7030000000	247
75.7330000000	259
75.7630000000	276
75.7930000000	295
75.8230000000	275
75.8530000000	234
75.8830000000	230
75.9130000000	216
75.9430000000	174
75.9730000000	186
76.0030000000	170
76.0330000000	126
76.0630000000	98
76.0930000000	88
76.1230000000	69
76.1530000000	48
76.1830000000	64
76.2130000000	38
76.2430000000	50
76.2730000000	42
76.3030000000	48
76.3330000000	45
76.3630000000	39
76.3930000000	48
76.4230000000	40
76.4530000000	66
76.4830000000	37
76.5130000000	44
76.5430000000	60
76.5730000000	39
76.6030000000	42
76.6330000000	35
76.6630000000	44
76.6930000000	49
76.7230000000	43
76.7530000000	48
76.7830000000	45
76.8130000000	44
76.8430000000	46
76.8730000000	44
76.9030000000	50
76.9330000000	40
76.9630000000	46
76.9930000000	47
77.0230000000	38
77.0530000000	39
77.0830000000	53
77.1130000000	48
77.1430000000	43
77.1730000000	39
77.2030000000	24
77.2330000000	45
77.2630000000	51
77.2930000000	29
77.3230000000	41
77.3530000000	35
77.3830000000	40
77.4130000000	46
77.4430000000	37
77.4730000000	38
77.5030000000	37
77.5330000000	47
77.5630000000	37
77.5930000000	28
77.6230000000	41
77.6530000000	53
77.6830000000	58
77.7130000000	40
77.7430000000	39
77.7730000000	48
77.8030000000	31
77.8330000000	39
77.8630000000	49
77.8930000000	39
77.9230000000	37
77.9530000000	45
77.9830000000	40
78.0130000000	40
78.0430000000	51
78.0730000000	42
78.1030000000	42
78.1330000000	47
78.1630000000	30
78.1930000000	47
78.2230000000	46
78.2530000000	43
78.2830000000	45
78.3130000000	50
78.3430000000	49
78.3730000000	46
78.4030000000	47
78.4330000000	38
78.4630000000	43
78.4930000000	46
78.5230000000	43
78.5530000000	46
78.5830000000	42
78.6130000000	52
78.6430000000	39
78.6730000000	48
78.7030000000	48
78.7330000000	39
78.7630000000	46
78.7930000000	50
78.8230000000	34
78.8530000000	44
78.8830000000	46
78.9130000000	40
78.9430000000	33
78.9730000000	35
79.0030000000	44
79.0330000000	41
79.0630000000	36
79.0930000000	38
79.1230000000	35
79.1530000000	36
79.1830000000	41
79.2130000000	40
79.2430000000	32
79.2730000000	46
79.3030000000	46
79.3330000000	34
79.3630000000	43
79.3930000000	35
79.4230000000	41
79.4530000000	42
79.4830000000	43
79.5130000000	37
79.5430000000	38
79.5730000000	36
79.6030000000	47
79.6330000000	44
79.6630000000	45
79.6930000000	33
79.7230000000	31
79.7530000000	43
79.7830000000	49
79.8130000000	40
79.8430000000	45
79.8730000000	34
79.9030000000	42
79.9330000000	37
79.9630000000	31
79.9930000000	29
80.0230000000	48
80.0530000000	44
80.0830000000	38
80.1130000000	39
80.1430000000	53
80.1730000000	39
80.2030000000	38
80.2330000000	37
80.2630000000	41
80.2930000000	42
80.3230000000	36
80.3530000000	42
80.3830000000	35
80.4130000000	44
80.4430000000	28
80.4730000000	26
80.5030000000	37
80.5330000000	38
80.5630000000	41
80.5930000000	40
80.6230000000	41
80.6530000000	39
80.6830000000	40
80.7130000000	44
80.7430000000	34
80.7730000000	41
80.8030000000	55
80.8330000000	38
80.8630000000	29
80.8930000000	46
80.9230000000	37
80.9530000000	40
80.9830000000	36
81.0130000000	41
81.0430000000	29
81.0730000000	33
81.1030000000	46
81.1330000000	38
81.1630000000	43
81.1930000000	48
81.2230000000	38
81.2530000000	48
81.2830000000	48
81.3130000000	50
81.3430000000	46
81.3730000000	43
81.4030000000	51
81.4330000000	59
81.4630000000	49
81.4930000000	46
81.5230000000	49
81.5530000000	55
81.5830000000	50
81.6130000000	43
81.6430000000	32
81.6730000000	43
81.7030000000	36
81.7330000000	33
81.7630000000	47
81.7930000000	38
81.8230000000	40
81.8530000000	37
81.8830000000	31
81.9130000000	39
81.9430000000	40
81.9730000000	32
82.0030000000	46
82.0330000000	47
82.0630000000	33
82.0930000000	45
82.1230000000	33
82.1530000000	34
82.1830000000	41
82.2130000000	55
82.2430000000	41
82.2730000000	33
82.3030000000	30
82.3330000000	36
82.3630000000	39
82.3930000000	36
82.4230000000	42
82.4530000000	38
82.4830000000	36
82.5130000000	37
82.5430000000	33
82.5730000000	43
82.6030000000	40
82.6330000000	34
82.6630000000	33
82.6930000000	43
82.7230000000	46
82.7530000000	31
82.7830000000	25
82.8130000000	36
82.8430000000	34
82.8730000000	29
82.9030000000	34
82.9330000000	28
82.9630000000	41
82.9930000000	49
83.0230000000	46
83.0530000000	30
83.0830000000	41
83.1130000000	44
83.1430000000	33
83.1730000000	36
83.2030000000	35
83.2330000000	35
83.2630000000	41
83.2930000000	31
83.3230000000	32
83.3530000000	39
83.3830000000	42
83.4130000000	44
83.4430000000	50
83.4730000000	52
83.5030000000	37
83.5330000000	36
83.5630000000	37
83.5930000000	28
83.6230000000	39
83.6530000000	45
83.6830000000	32
83.7130000000	40
83.7430000000	32
83.7730000000	31
83.8030000000	41
83.8330000000	42
83.8630000000	37
83.8930000000	38
83.9230000000	45
83.9530000000	35
83.9830000000	41
84.0130000000	44
84.0430000000	49
84.0730000000	44
84.1030000000	30
84.1330000000	44
84.1630000000	44
84.1930000000	36
84.2230000000	37
84.2530000000	50
84.2830000000	29
84.3130000000	34
84.3430000000	43
84.3730000000	29
84.4030000000	35
84.4330000000	50
84.4630000000	38
84.4930000000	37
84.5230000000	54
84.5530000000	38
84.5830000000	39
84.6130000000	41
84.6430000000	49
84.6730000000	39
84.7030000000	28
84.7330000000	26
84.7630000000	31
84.7930000000	48
84.8230000000	38
84.8530000000	37
84.8830000000	41
84.9130000000	28
84.9430000000	32
84.9730000000	39
85.0030000000	39
85.0330000000	32
85.0630000000	42
85.0930000000	36
85.1230000000	25
85.1530000000	34
85.1830000000	39
85.2130000000	33
85.2430000000	36
85.2730000000	29
85.3030000000	40
85.3330000000	40
85.3630000000	45
85.3930000000	33
85.4230000000	36
85.4530000000	37
85.4830000000	48
85.5130000000	39
85.5430000000	39
85.5730000000	26
85.6030000000	41
85.6330000000	28
85.6630000000	29
85.6930000000	36
85.7230000000	38
85.7530000000	31
85.7830000000	27
85.8130000000	49
85.8430000000	49
85.8730000000	42
85.9030000000	39
85.9330000000	34
85.9630000000	32
85.9930000000	36
86.0230000000	48
86.0530000000	31
86.0830000000	22
86.1130000000	34
86.1430000000	34
86.1730000000	47
86.2030000000	30
86.2330000000	38
86.2630000000	37
86.2930000000	37
86.3230000000	37
86.3530000000	43
86.3830000000	36
86.4130000000	36
86.4430000000	39
86.4730000000	34
86.5030000000	45
86.5330000000	33
86.5630000000	38
86.5930000000	43
86.6230000000	37
86.6530000000	35
86.6830000000	40
86.7130000000	36
86.7430000000	35
86.7730000000	34
86.8030000000	41
86.8330000000	39
86.8630000000	44
86.8930000000	37
86.9230000000	38
86.9530000000	43
86.9830000000	53
87.0130000000	53
87.0430000000	43
87.0730000000	42
87.1030000000	41
87.1330000000	54
87.1630000000	54
87.1930000000	34
87.2230000000	39
87.2530000000	48
87.2830000000	36
87.3130000000	27
87.3430000000	43
87.3730000000	42
87.4030000000	46
87.4330000000	36
87.4630000000	33
87.4930000000	36
87.5230000000	37
87.5530000000	44
87.5830000000	44
87.6130000000	42
87.6430000000	46
87.6730000000	32
87.7030000000	38
87.7330000000	37
87.7630000000	41
87.7930000000	51
87.8230000000	33
87.8530000000	45
87.8830000000	46
87.9130000000	31
87.9430000000	30
87.9730000000	37
88.0030000000	35
88.0330000000	32
88.0630000000	37
88.0930000000	52
88.1230000000	35
88.1530000000	34
88.1830000000	36
88.2130000000	24
88.2430000000	34
88.2730000000	42
88.3030000000	37
88.3330000000	36
88.3630000000	46
88.3930000000	37
88.4230000000	37
88.4530000000	38
88.4830000000	40
88.5130000000	41
88.5430000000	39
88.5730000000	36
88.6030000000	44
88.6330000000	38
88.6630000000	32
88.6930000000	32
88.7230000000	44
88.7530000000	41
88.7830000000	42
88.8130000000	53
88.8430000000	41
88.8730000000	47
88.9030000000	56
88.9330000000	58
88.9630000000	61
88.9930000000	43
89.0230000000	54
89.0530000000	51
89.0830000000	51
89.1130000000	35
89.1430000000	53
89.1730000000	43
89.2030000000	41
89.2330000000	46
89.2630000000	39
89.2930000000	44
89.3230000000	33
89.3530000000	43
89.3830000000	35
89.4130000000	41
89.4430000000	38
89.4730000000	37
89.5030000000	26
89.5330000000	37
89.5630000000	41
89.5930000000	34
89.6230000000	39
89.6530000000	46
89.6830000000	39
89.7130000000	36
89.7430000000	44
89.7730000000	41
89.8030000000	39
89.8330000000	43
89.8630000000	38
89.8930000000	31
89.9230000000	34
89.9530000000	50
89.9830000000	43
90.0130000000	46
90.0430000000	42
90.0730000000	36
90.1030000000	26
90.1330000000	35
90.1630000000	31
90.1930000000	28
90.2230000000	36
90.2530000000	24
90.2830000000	26
90.3130000000	44
90.3430000000	37
90.3730000000	33
90.4030000000	37
90.4330000000	42
90.4630000000	38
90.4930000000	46
90.5230000000	43
90.5530000000	39
90.5830000000	40
90.6130000000	35
90.6430000000	41
90.6730000000	34
90.7030000000	45
90.7330000000	36
90.7630000000	32
90.7930000000	35
90.8230000000	31
90.8530000000	33
90.8830000000	46
90.9130000000	36
90.9430000000	40
90.9730000000	37
91.0030000000	37
91.0330000000	43
91.0630000000	37
91.0930000000	35
91.1230000000	39
91.1530000000	38
91.1830000000	41
91.2130000000	39
91.2430000000	42
91.2730000000	33
91.3030000000	30
91.3330000000	35
91.3630000000	41
91.3930000000	42
91.4230000000	36
91.4530000000	40
91.4830000000	40
91.5130000000	45
91.5430000000	40
91.5730000000	37
91.6030000000	36
91.6330000000	38
91.6630000000	44
91.6930000000	35
91.7230000000	35
91.7530000000	55
91.7830000000	32
91.8130000000	40
91.8430000000	36
91.8730000000	31
91.9030000000	49
91.9330000000	42
91.9630000000	39
91.9930000000	45
92.0230000000	35
92.0530000000	38
92.0830000000	33
92.1130000000	43
92.1430000000	36
92.1730000000	46
92.2030000000	43
92.2330000000	31
92.2630000000	38
92.2930000000	42
92.3230000000	35
92.3530000000	33
92.3830000000	30
92.4130000000	36
92.4430000000	36
92.4730000000	42
92.5030000000	41
92.5330000000	38
92.5630000000	42
92.5930000000	43
92.6230000000	48
92.6530000000	40
92.6830000000	47
92.7130000000	41
92.7430000000	46
92.7730000000	45
92.8030000000	38
92.8330000000	40
92.8630000000	46
92.8930000000	38
92.9230000000	33
92.9530000000	35
92.9830000000	32
93.0130000000	43
93.0430000000	40
93.0730000000	35
93.1030000000	34
93.1330000000	39
93.1630000000	35
93.1930000000	41
93.2230000000	44
93.2530000000	40
93.2830000000	43
93.3130000000	37
93.3430000000	35
93.3730000000	31
93.4030000000	37
93.4330000000	41
93.4630000000	33
93.4930000000	43
93.5230000000	40
93.5530000000	37
93.5830000000	46
93.6130000000	36
93.6430000000	37
93.6730000000	44
93.7030000000	42
93.7330000000	35
93.7630000000	45
93.7930000000	38
93.8230000000	49
93.8530000000	37
93.8830000000	50
93.9130000000	44
93.9430000000	52
93.9730000000	42
94.0030000000	43
94.0330000000	37
94.0630000000	26
94.0930000000	32
94.1230000000	39
94.1530000000	31
94.1830000000	41
94.2130000000	52
94.2430000000	43
94.2730000000	37
94.3030000000	41
94.3330000000	30
94.3630000000	33
94.3930000000	34
94.4230000000	32
94.4530000000	34
94.4830000000	43
94.5130000000	39
94.5430000000	39
94.5730000000	51
94.6030000000	55
94.6330000000	60
94.6630000000	53
94.6930000000	48
94.7230000000	56
94.7530000000	59
94.7830000000	61
94.8130000000	52
94.8430000000	59
94.8730000000	51
94.9030000000	44
94.9330000000	45
94.9630000000	49
94.9930000000	50
95.0230000000	37
95.0530000000	48
95.0830000000	43
95.1130000000	44
95.1430000000	38
95.1730000000	54
95.2030000000	51
95.2330000000	41
95.2630000000	35
95.2930000000	44
95.3230000000	41
95.3530000000	29
95.3830000000	33
95.4130000000	48
95.4430000000	39
95.4730000000	47
95.5030000000	46
95.5330000000	49
95.5630000000	44
95.5930000000	42
95.6230000000	57
95.6530000000	36
95.6830000000	41
95.7130000000	40
95.7430000000	39
95.7730000000	31
95.8030000000	38
95.8330000000	46
95.8630000000	44
95.8930000000	36
95.9230000000	34
95.9530000000	40
95.9830000000	38
96.0130000000	31
96.0430000000	44
96.0730000000	43
96.1030000000	34
96.1330000000	48
96.1630000000	38
96.1930000000	36
96.2230000000	41
96.2530000000	48
96.2830000000	38
96.3130000000	39
96.3430000000	40
96.3730000000	36
96.4030000000	38
96.4330000000	36
96.4630000000	37
96.4930000000	38
96.5230000000	41
96.5530000000	46
96.5830000000	36
96.6130000000	40
96.6430000000	34
96.6730000000	41
96.7030000000	33
96.7330000000	31
96.7630000000	39
96.7930000000	44
96.8230000000	37
96.8530000000	36
96.8830000000	36
96.9130000000	35
96.9430000000	45
96.9730000000	39
97.0030000000	42
97.0330000000	37
97.0630000000	45
97.0930000000	31
97.1230000000	37
97.1530000000	35
97.1830000000	45
97.2130000000	35
97.2430000000	37
97.2730000000	35
97.3030000000	41
97.3330000000	39
97.3630000000	37
97.3930000000	43
97.4230000000	38
97.4530000000	31
97.4830000000	40
97.5130000000	44
97.5430000000	33
97.5730000000	31
97.6030000000	36
97.6330000000	37
97.6630000000	42
97.6930000000	48
97.7230000000	33
97.7530000000	42
97.7830000000	37
97.8130000000	42
97.8430000000	45
97.8730000000	31
97.9030000000	37
97.9330000000	36
97.9630000000	46
97.9930000000	32
98.0230000000	45
98.0530000000	39
98.0830000000	33
98.1130000000	40
98.1430000000	50
98.1730000000	41
98.2030000000	36
98.2330000000	43
98.2630000000	33
98.2930000000	42
98.3230000000	33
98.3530000000	49
98.3830000000	38
98.4130000000	39
98.4430000000	40
98.4730000000	44
98.5030000000	43
98.5330000000	51
98.5630000000	40
98.5930000000	46
98.6230000000	48
98.6530000000	48
98.6830000000	50
98.7130000000	38
98.7430000000	40
98.7730000000	38
98.8030000000	32
98.8330000000	40
98.8630000000	37
98.8930000000	35
98.9230000000	36
98.9530000000	38
98.9830000000	40
99.0130000000	37
99.0430000000	39
99.0730000000	37
99.1030000000	36
99.1330000000	42
99.1630000000	34
99.1930000000	37
99.2230000000	41
99.2530000000	27
99.2830000000	44
99.3130000000	37
99.3430000000	34
99.3730000000	39
99.4030000000	47
99.4330000000	29
99.4630000000	31
99.4930000000	34
99.5230000000	38
99.5530000000	45
99.5830000000	37
99.6130000000	32
99.6430000000	30
99.6730000000	38
99.7030000000	46
99.7330000000	40
99.7630000000	47
99.7930000000	39
99.8230000000	36
99.8530000000	39
99.8830000000	33
99.9130000000	42
99.9430000000	35
99.9730000000	32
100.0030000000	31
100.0330000000	37
100.0630000000	34
100.0930000000	42
100.1230000000	51
100.1530000000	41
100.1830000000	39
100.2130000000	41
100.2430000000	35
100.2730000000	40
100.3030000000	30
100.3330000000	26
100.3630000000	38
100.3930000000	47
100.4230000000	41
100.4530000000	30
100.4830000000	30
100.5130000000	48
100.5430000000	38
100.5730000000	42
100.6030000000	34
100.6330000000	29
100.6630000000	32
100.6930000000	35
100.7230000000	51
100.7530000000	43
100.7830000000	52
100.8130000000	42
100.8430000000	38
100.8730000000	41
100.9030000000	42
100.9330000000	46
100.9630000000	36
100.9930000000	32
101.0230000000	34
101.0530000000	40
101.0830000000	36
101.1130000000	33
101.1430000000	37
101.1730000000	34
101.2030000000	45
101.2330000000	40
101.2630000000	44
101.2930000000	44
101.3230000000	26
101.3530000000	32
101.3830000000	46
101.4130000000	38
101.4430000000	31
101.4730000000	32
101.5030000000	33
101.5330000000	42
101.5630000000	41
101.5930000000	36
101.6230000000	35
101.6530000000	33
101.6830000000	32
101.7130000000	34
101.7430000000	46
101.7730000000	34
101.8030000000	41
101.8330000000	37
101.8630000000	38
101.8930000000	37
101.9230000000	28
101.9530000000	32
101.9830000000	40
102.0130000000	38
102.0430000000	37
102.0730000000	49
102.1030000000	33
102.1330000000	46
102.1630000000	39
102.1930000000	42
102.2230000000	37
102.2530000000	35
102.2830000000	32
102.3130000000	40
102.3430000000	31
102.3730000000	37
102.4030000000	45
102.4330000000	32
102.4630000000	41
102.4930000000	38
102.5230000000	30
102.5530000000	42
102.5830000000	41
102.6130000000	38
102.6430000000	39
102.6730000000	37
102.7030000000	42
102.7330000000	41
102.7630000000	41
102.7930000000	32
102.8230000000	25
102.8530000000	34
102.8830000000	40
102.9130000000	31
102.9430000000	26
102.9730000000	39
103.0030000000	39
103.0330000000	39
103.0630000000	34
103.0930000000	38
103.1230000000	37
103.1530000000	30
103.1830000000	35
103.2130000000	51
103.2430000000	53
103.2730000000	43
103.3030000000	43
103.3330000000	47
103.3630000000	38
103.3930000000	43
103.4230000000	40
103.4530000000	40
103.4830000000	39
103.5130000000	47
103.5430000000	49
103.5730000000	33
103.6030000000	47
103.6330000000	40
103.6630000000	40
103.6930000000	35
103.7230000000	30
103.7530000000	38
103.7830000000	41
103.8130000000	34
103.8430000000	51
103.8730000000	40
103.9030000000	27
103.9330000000	33
103.9630000000	36
103.9930000000	31
104.0230000000	40
104.0530000000	30
104.0830000000	38
104.1130000000	46
104.1430000000	43
104.1730000000	36
104.2030000000	47
104.2330000000	48
104.2630000000	39
104.2930000000	38
104.3230000000	42
104.3530000000	44
104.3830000000	43
104.4130000000	49
104.4430000000	34
104.4730000000	51
104.5030000000	48
104.5330000000	46
104.5630000000	45
104.5930000000	39
104.6230000000	42
104.6530000000	36
104.6830000000	29
104.7130000000	41
104.7430000000	39
104.7730000000	43
104.8030000000	36
104.8330000000	36
104.8630000000	48
104.8930000000	46
104.9230000000	48
104.9530000000	46
104.9830000000	39
105.0130000000	38
105.0430000000	35
105.0730000000	40
105.1030000000	40
105.1330000000	40
105.1630000000	36
105.1930000000	24
105.2230000000	34
105.2530000000	33
105.2830000000	33
105.3130000000	48
105.3430000000	31
105.3730000000	40
105.4030000000	35
105.4330000000	27
105.4630000000	33
105.4930000000	35
105.5230000000	34
105.5530000000	30
105.5830000000	29
105.6130000000	33
105.6430000000	31
105.6730000000	48
105.7030000000	39
105.7330000000	23
105.7630000000	29
105.7930000000	28
105.8230000000	38
105.8530000000	37
105.8830000000	37
105.9130000000	30
105.9430000000	22
105.9730000000	35
106.0030000000	44
106.0330000000	20
106.0630000000	22
106.0930000000	35
106.1230000000	37
106.1530000000	37
106.1830000000	45
106.2130000000	42
106.2430000000	46
106.2730000000	30
106.3030000000	33
106.3330000000	38
106.3630000000	32
106.3930000000	39
106.4230000000	38
106.4530000000	28
106.4830000000	33
106.5130000000	36
106.5430000000	34
106.5730000000	41
106.6030000000	33
106.6330000000	38
106.6630000000	38
106.6930000000	28
106.7230000000	40
106.7530000000	36
106.7830000000	38
106.8130000000	33
106.8430000000	30
106.8730000000	37
106.9030000000	33
106.9330000000	41
106.9630000000	31
106.9930000000	43
107.0230000000	44
107.0530000000	35
107.0830000000	40
107.1130000000	39
107.1430000000	41
107.1730000000	41
107.2030000000	34
107.2330000000	38
107.2630000000	30
107.2930000000	32
107.3230000000	37
107.3530000000	36
107.3830000000	37
107.4130000000	38
107.4430000000	36
107.4730000000	44
107.5030000000	37
107.5330000000	45
107.5630000000	50
107.5930000000	39
107.6230000000	31
107.6530000000	38
107.6830000000	38
107.7130000000	27
107.7430000000	31
107.7730000000	48
107.8030000000	39
107.8330000000	24
107.8630000000	40
107.8930000000	48
107.9230000000	33
107.9530000000	31
107.9830000000	44
108.0130000000	41
108.0430000000	39
108.0730000000	30
108.1030000000	39
108.1330000000	36
108.1630000000	32
108.1930000000	40
108.2230000000	44
108.2530000000	37
108.2830000000	34
108.3130000000	42
108.3430000000	32
108.3730000000	33
108.4030000000	39
108.4330000000	26
108.4630000000	36
108.4930000000	50
108.5230000000	43
108.5530000000	35
108.5830000000	40
108.6130000000	28
108.6430000000	38
108.6730000000	23
108.7030000000	29
108.7330000000	40
108.7630000000	32
108.7930000000	36
108.8230000000	28
108.8530000000	39
108.8830000000	32
108.9130000000	47
108.9430000000	33
108.9730000000	36
109.0030000000	36
109.0330000000	35
109.0630000000	32
109.0930000000	36
109.1230000000	28
109.1530000000	45
109.1830000000	44
109.2130000000	32
109.2430000000	22
109.2730000000	27
109.3030000000	35
109.3330000000	31
109.3630000000	32
109.3930000000	32
109.4230000000	41
109.4530000000	42
109.4830000000	26
109.5130000000	37
109.5430000000	37
109.5730000000	35
109.6030000000	31
109.6330000000	27
109.6630000000	39
109.6930000000	41
109.7230000000	38
109.7530000000	39
109.7830000000	46
109.8130000000	37
109.8430000000	44
109.8730000000	49
109.9030000000	25
109.9330000000	38
109.9630000000	42
109.9930000000	48
110.0230000000	37
110.0530000000	44
110.0830000000	30
110.1130000000	45
110.1430000000	45
110.1730000000	35
110.2030000000	37
110.2330000000	38
110.2630000000	45
110.2930000000	42
110.3230000000	50
110.3530000000	33
110.3830000000	55
110.4130000000	35
110.4430000000	39
110.4730000000	34
110.5030000000	37
110.5330000000	30
110.5630000000	35
110.5930000000	32
110.6230000000	47
110.6530000000	30
110.6830000000	36
110.7130000000	37
110.7430000000	41
110.7730000000	33
110.8030000000	27
110.8330000000	38
110.8630000000	38
110.8930000000	36
110.9230000000	33
110.9530000000	36
110.9830000000	36
111.0130000000	34
111.0430000000	33
111.0730000000	40
111.1030000000	41
111.1330000000	35
111.1630000000	36
111.1930000000	36
111.2230000000	33
111.2530000000	32
111.2830000000	34
111.3130000000	31
111.3430000000	31
111.3730000000	44
111.4030000000	44
111.4330000000	31
111.4630000000	38
111.4930000000	44
111.5230000000	34
111.5530000000	42
111.5830000000	32
111.6130000000	50
111.6430000000	37
111.6730000000	42
111.7030000000	45
111.7330000000	28
111.7630000000	31
111.7930000000	46
111.8230000000	37
111.8530000000	34
111.8830000000	38
111.9130000000	36
111.9430000000	43
111.9730000000	44
112.0030000000	39
112.0330000000	37
112.0630000000	36
112.0930000000	50
112.1230000000	33
112.1530000000	37
112.1830000000	41
112.2130000000	41
112.2430000000	39
112.2730000000	37
112.3030000000	27
112.3330000000	37
112.3630000000	30
112.3930000000	35
112.4230000000	34
112.4530000000	36
112.4830000000	38
112.5130000000	36
112.5430000000	40
112.5730000000	31
112.6030000000	34
112.6330000000	36
112.6630000000	39
112.6930000000	39
112.7230000000	44
112.7530000000	37
112.7830000000	25
112.8130000000	39
112.8430000000	45
112.8730000000	29
112.9030000000	21
112.9330000000	36
112.9630000000	39
112.9930000000	42
113.0230000000	31
113.0530000000	31
113.0830000000	25
113.1130000000	35
113.1430000000	46
113.1730000000	51
113.2030000000	30
113.2330000000	49
113.2630000000	40
113.2930000000	48
113.3230000000	37
113.3530000000	30
113.3830000000	39
113.4130000000	45
113.4430000000	44
113.4730000000	40
113.5030000000	39
113.5330000000	32
113.5630000000	28
113.5930000000	37
113.6230000000	34
113.6530000000	33
113.6830000000	45
113.7130000000	48
113.7430000000	36
113.7730000000	36
113.8030000000	32
113.8330000000	33
113.8630000000	42
113.8930000000	47
113.9230000000	39
113.9530000000	38
113.9830000000	37
114.0130000000	36
114.0430000000	38
114.0730000000	45
114.1030000000	49
114.1330000000	37
114.1630000000	45
114.1930000000	46
114.2230000000	29
114.2530000000	28
114.2830000000	38
114.3130000000	38
114.3430000000	34
114.3730000000	39
114.4030000000	30
114.4330000000	37
114.4630000000	1
114.4930000000	1
114.5230000000	1
114.5530000000	1
114.5830000000	1
