0.3130000000	1
0.3430000000	2
0.3730000000	1
0.4030000000	1
0.4330000000	1
0.4630000000	1
0.4930000000	2
0.5230000000	1
0.5530000000	1
0.5830000000	1
0.6130000000	1
0.6430000000	1
0.6730000000	1
0.7030000000	1
0.7330000000	1
0.7630000000	1
0.7930000000	1
0.8230000000	1
0.8530000000	1
0.8830000000	1
0.9130000000	1
0.9430000000	1
0.9730000000	1
1.0030000000	1
1.0330000000	1
1.0630000000	1
1.0930000000	1
1.1230000000	1
1.1530000000	1
1.1830000000	1
1.2130000000	2
1.2430000000	1
1.2730000000	2
1.3030000000	1
1.3330000000	1
1.3630000000	1
1.3930000000	1
1.4230000000	1
1.4530000000	1
1.4830000000	1
1.5130000000	1
1.5430000000	2
1.5730000000	1
1.6030000000	1
1.6330000000	1
1.6630000000	1
1.6930000000	2
1.7230000000	1
1.7530000000	1
1.7830000000	2
1.8130000000	1
1.8430000000	1
1.8730000000	1
1.9030000000	2
1.9330000000	1
1.9630000000	2
1.9930000000	2
2.0230000000	1
2.0530000000	1
2.0830000000	1
2.1130000000	1
2.1430000000	2
2.1730000000	1
2.2030000000	2
2.2330000000	2
2.2630000000	1
2.2930000000	1
2.3230000000	1
2.3530000000	1
2.3830000000	1
2.4130000000	1
2.4430000000	2
2.4730000000	2
2.5030000000	1
2.5330000000	2
2.5630000000	3
2.5930000000	2
2.6230000000	2
2.6530000000	1
2.6830000000	1
2.7130000000	2
2.7430000000	3
2.7730000000	1
2.8030000000	2
2.8330000000	2
2.8630000000	2
2.8930000000	2
2.9230000000	3
2.9530000000	1
2.9830000000	1
3.0130000000	2
3.0430000000	1
3.0730000000	1
3.1030000000	1
3.1330000000	1
3.1630000000	2
3.1930000000	3
3.2230000000	1
3.2530000000	2
3.2830000000	1
3.3130000000	2
3.3430000000	1
3.3730000000	3
3.4030000000	2
3.4330000000	3
3.4630000000	3
3.4930000000	2
3.5230000000	1
3.5530000000	1
3.5830000000	2
3.6130000000	5
3.6430000000	4
3.6730000000	1
3.7030000000	3
3.7330000000	3
3.7630000000	2
3.7930000000	1
3.8230000000	3
3.8530000000	5
3.8830000000	3
3.9130000000	3
3.9430000000	1
3.9730000000	3
4.0030000000	2
4.0330000000	1
4.0630000000	4
4.0930000000	3
4.1230000000	5
4.1530000000	6
4.1830000000	2
4.2130000000	2
4.2430000000	3
4.2730000000	5
4.3030000000	6
4.3330000000	3
4.3630000000	1
4.3930000000	5
4.4230000000	7
4.4530000000	9
4.4830000000	20
4.5130000000	13
4.5430000000	30
4.5730000000	49
4.6030000000	85
4.6330000000	95
4.6630000000	112
4.6930000000	138
4.7230000000	121
4.7530000000	129
4.7830000000	122
4.8130000000	124
4.8430000000	130
4.8730000000	143
4.9030000000	156
4.9330000000	152
4.9630000000	122
4.9930000000	153
5.0230000000	140
5.0530000000	136
5.0830000000	142
5.1130000000	142
5.1430000000	151
5.1730000000	126
5.2030000000	146
5.2330000000	126
5.2630000000	144
5.2930000000	125
5.3230000000	143
5.3530000000	146
5.3830000000	144
5.4130000000	143
5.4430000000	155
5.4730000000	148
5.5030000000	147
5.5330000000	143
5.5630000000	137
5.5930000000	167
5.6230000000	148
5.6530000000	130
5.6830000000	149
5.7130000000	135
5.7430000000	166
5.7730000000	147
5.8030000000	153
5.8330000000	121
5.8630000000	154
5.8930000000	138
5.9230000000	131
5.9530000000	157
5.9830000000	147
6.0130000000	146
6.0430000000	161
6.0730000000	151
6.1030000000	168
6.1330000000	161
6.1630000000	151
6.1930000000	156
6.2230000000	145
6.2530000000	135
6.2830000000	167
6.3130000000	151
6.3430000000	152
6.3730000000	149
6.4030000000	127
6.4330000000	158
6.4630000000	155
6.4930000000	139
6.5230000000	130
6.5530000000	133
6.5830000000	147
6.6130000000	163
6.6430000000	141
6.6730000000	151
6.7030000000	129
6.7330000000	128
6.7630000000	145
6.7930000000	144
6.8230000000	151
6.8530000000	123
6.8830000000	140
6.9130000000	161
6.9430000000	153
6.9730000000	128
7.0030000000	131
7.0330000000	145
7.0630000000	133
7.0930000000	149
7.1230000000	142
7.1530000000	162
7.1830000000	152
7.2130000000	130
7.2430000000	143
7.2730000000	154
7.3030000000	150
7.3330000000	141
7.3630000000	134
7.3930000000	127
7.4230000000	147
7.4530000000	145
7.4830000000	143
7.5130000000	149
7.5430000000	154
7.5730000000	132
7.6030000000	137
7.6330000000	154
7.6630000000	155
7.6930000000	137
7.7230000000	133
7.7530000000	153
7.7830000000	130
7.8130000000	136
7.8430000000	149
7.8730000000	131
7.9030000000	140
7.9330000000	159
7.9630000000	148
7.9930000000	118
8.0230000000	122
8.0530000000	131
8.0830000000	138
8.1130000000	149
8.1430000000	172
8.1730000000	131
8.2030000000	163
8.2330000000	158
8.2630000000	141
8.2930000000	147
8.3230000000	139
8.3530000000	137
8.3830000000	127
8.4130000000	154
8.4430000000	171
8.4730000000	168
8.5030000000	132
8.5330000000	136
8.5630000000	138
8.5930000000	137
8.6230000000	139
8.6530000000	160
8.6830000000	127
8.7130000000	130
8.7430000000	157
8.7730000000	163
8.8030000000	139
8.8330000000	146
8.8630000000	133
8.8930000000	144
8.9230000000	169
8.9530000000	138
8.9830000000	127
9.0130000000	149
9.0430000000	144
9.0730000000	158
9.1030000000	150
9.1330000000	127
9.1630000000	150
9.1930000000	140
9.2230000000	145
9.2530000000	127
9.2830000000	162
9.3130000000	154
9.3430000000	138
9.3730000000	143
9.4030000000	151
9.4330000000	146
9.4630000000	159
9.4930000000	120
9.5230000000	133
9.5530000000	147
9.5830000000	147
9.6130000000	152
9.6430000000	142
9.6730000000	142
9.7030000000	157
9.7330000000	160
9.7630000000	167
9.7930000000	135
9.8230000000	152
9.8530000000	141
9.8830000000	148
9.9130000000	151
9.9430000000	158
9.9730000000	153
10.0030000000	141
10.0330000000	146
10.0630000000	155
10.0930000000	122
10.1230000000	150
10.1530000000	148
10.1830000000	151
10.2130000000	166
10.2430000000	135
10.2730000000	163
10.3030000000	138
10.3330000000	148
10.3630000000	164
10.3930000000	151
10.4230000000	151
10.4530000000	141
10.4830000000	165
10.5130000000	137
10.5430000000	145
10.5730000000	161
10.6030000000	163
10.6330000000	157
10.6630000000	131
10.6930000000	165
10.7230000000	144
10.7530000000	132
10.7830000000	129
10.8130000000	158
10.8430000000	122
10.8730000000	151
10.9030000000	140
10.9330000000	155
10.9630000000	152
10.9930000000	145
11.0230000000	132
11.0530000000	141
11.0830000000	138
11.1130000000	135
11.1430000000	148
11.1730000000	156
11.2030000000	157
11.2330000000	141
11.2630000000	146
11.2930000000	148
11.3230000000	140
11.3530000000	155
11.3830000000	140
11.4130000000	145
11.4430000000	143
11.4730000000	130
11.5030000000	151
11.5330000000	146
11.5630000000	156
11.5930000000	146
11.6230000000	156
11.6530000000	145
11.6830000000	162
11.7130000000	148
11.7430000000	150
11.7730000000	144
11.8030000000	133
11.8330000000	150
11.8630000000	128
11.8930000000	154
11.9230000000	145
11.9530000000	147
11.9830000000	150
12.0130000000	156
12.0430000000	168
12.0730000000	144
12.1030000000	144
12.1330000000	157
12.1630000000	154
12.1930000000	153
12.2230000000	150
12.2530000000	138
12.2830000000	145
12.3130000000	146
12.3430000000	145
12.3730000000	162
12.4030000000	161
12.4330000000	149
12.4630000000	155
12.4930000000	144
12.5230000000	154
12.5530000000	159
12.5830000000	138
12.6130000000	140
12.6430000000	159
12.6730000000	155
12.7030000000	167
12.7330000000	170
12.7630000000	136
12.7930000000	150
12.8230000000	154
12.8530000000	143
12.8830000000	156
12.9130000000	148
12.9430000000	142
12.9730000000	147
13.0030000000	138
13.0330000000	136
13.0630000000	149
13.0930000000	157
13.1230000000	148
13.1530000000	133
13.1830000000	154
13.2130000000	151
13.2430000000	134
13.2730000000	120
13.3030000000	155
13.3330000000	162
13.3630000000	137
13.3930000000	146
13.4230000000	145
13.4530000000	130
13.4830000000	149
13.5130000000	143
13.5430000000	124
13.5730000000	156
13.6030000000	129
13.6330000000	158
13.6630000000	145
13.6930000000	140
13.7230000000	148
13.7530000000	131
13.7830000000	129
13.8130000000	162
13.8430000000	123
13.8730000000	148
13.9030000000	156
13.9330000000	147
13.9630000000	148
13.9930000000	143
14.0230000000	159
14.0530000000	148
14.0830000000	127
14.1130000000	166
14.1430000000	143
14.1730000000	140
14.2030000000	148
14.2330000000	139
14.2630000000	139
14.2930000000	153
14.3230000000	146
14.3530000000	157
14.3830000000	140
14.4130000000	135
14.4430000000	147
14.4730000000	170
14.5030000000	166
14.5330000000	147
14.5630000000	146
14.5930000000	140
14.6230000000	131
14.6530000000	162
14.6830000000	141
14.7130000000	143
14.7430000000	155
14.7730000000	141
14.8030000000	140
14.8330000000	156
14.8630000000	148
14.8930000000	130
14.9230000000	159
14.9530000000	141
14.9830000000	170
15.0130000000	147
15.0430000000	161
15.0730000000	151
15.1030000000	148
15.1330000000	148
15.1630000000	127
15.1930000000	136
15.2230000000	171
15.2530000000	145
15.2830000000	158
15.3130000000	161
15.3430000000	191
15.3730000000	154
15.4030000000	157
15.4330000000	161
15.4630000000	167
15.4930000000	166
15.5230000000	126
15.5530000000	149
15.5830000000	149
15.6130000000	137
15.6430000000	154
15.6730000000	126
15.7030000000	184
15.7330000000	127
15.7630000000	147
15.7930000000	130
15.8230000000	151
15.8530000000	153
15.8830000000	153
15.9130000000	170
15.9430000000	138
15.9730000000	137
16.0030000000	137
16.0330000000	163
16.0630000000	156
16.0930000000	152
16.1230000000	160
16.1530000000	155
16.1830000000	157
16.2130000000	140
16.2430000000	164
16.2730000000	121
16.3030000000	151
16.3330000000	134
16.3630000000	164
16.3930000000	156
16.4230000000	139
16.4530000000	131
16.4830000000	138
16.5130000000	134
16.5430000000	183
16.5730000000	139
16.6030000000	159
16.6330000000	144
16.6630000000	160
16.6930000000	158
16.7230000000	147
16.7530000000	138
16.7830000000	170
16.8130000000	170
16.8430000000	135
16.8730000000	165
16.9030000000	146
16.9330000000	136
16.9630000000	149
16.9930000000	168
17.0230000000	144
17.0530000000	167
17.0830000000	161
17.1130000000	142
17.1430000000	139
17.1730000000	162
17.2030000000	161
17.2330000000	162
17.2630000000	154
17.2930000000	138
17.3230000000	150
17.3530000000	148
17.3830000000	134
17.4130000000	140
17.4430000000	166
17.4730000000	156
17.5030000000	151
17.5330000000	151
17.5630000000	162
17.5930000000	153
17.6230000000	146
17.6530000000	167
17.6830000000	170
17.7130000000	147
17.7430000000	138
17.7730000000	146
17.8030000000	156
17.8330000000	156
17.8630000000	147
17.8930000000	171
17.9230000000	166
17.9530000000	150
17.9830000000	164
18.0130000000	149
18.0430000000	137
18.0730000000	149
18.1030000000	142
18.1330000000	150
18.1630000000	169
18.1930000000	154
18.2230000000	150
18.2530000000	155
18.2830000000	156
18.3130000000	157
18.3430000000	161
18.3730000000	156
18.4030000000	164
18.4330000000	141
18.4630000000	141
18.4930000000	139
18.5230000000	140
18.5530000000	129
18.5830000000	157
18.6130000000	143
18.6430000000	147
18.6730000000	156
18.7030000000	155
18.7330000000	131
18.7630000000	164
18.7930000000	181
18.8230000000	165
18.8530000000	146
18.8830000000	161
18.9130000000	141
18.9430000000	151
18.9730000000	150
19.0030000000	150
19.0330000000	153
19.0630000000	160
19.0930000000	146
19.1230000000	170
19.1530000000	164
19.1830000000	164
19.2130000000	164
19.2430000000	164
19.2730000000	156
19.3030000000	143
19.3330000000	159
19.3630000000	174
19.3930000000	179
19.4230000000	167
19.4530000000	182
19.4830000000	170
19.5130000000	161
19.5430000000	171
19.5730000000	144
19.6030000000	177
19.6330000000	155
19.6630000000	150
19.6930000000	151
19.7230000000	185
19.7530000000	181
19.7830000000	153
19.8130000000	144
19.8430000000	164
19.8730000000	160
19.9030000000	168
19.9330000000	177
19.9630000000	161
19.9930000000	181
20.0230000000	159
20.0530000000	172
20.0830000000	179
20.1130000000	155
20.1430000000	142
20.1730000000	161
20.2030000000	149
20.2330000000	151
20.2630000000	154
20.2930000000	161
20.3230000000	136
20.3530000000	174
20.3830000000	159
20.4130000000	162
20.4430000000	164
20.4730000000	149
20.5030000000	148
20.5330000000	144
20.5630000000	182
20.5930000000	140
20.6230000000	170
20.6530000000	173
20.6830000000	178
20.7130000000	169
20.7430000000	158
20.7730000000	149
20.8030000000	164
20.8330000000	168
20.8630000000	157
20.8930000000	143
20.9230000000	147
20.9530000000	167
20.9830000000	152
21.0130000000	174
21.0430000000	145
21.0730000000	164
21.1030000000	149
21.1330000000	157
21.1630000000	199
21.1930000000	173
21.2230000000	175
21.2530000000	153
21.2830000000	160
21.3130000000	187
21.3430000000	166
21.3730000000	168
21.4030000000	163
21.4330000000	176
21.4630000000	176
21.4930000000	182
21.5230000000	176
21.5530000000	172
21.5830000000	176
21.6130000000	165
21.6430000000	179
21.6730000000	181
21.7030000000	180
21.7330000000	171
21.7630000000	189
21.7930000000	184
21.8230000000	189
21.8530000000	155
21.8830000000	157
21.9130000000	178
21.9430000000	189
21.9730000000	182
22.0030000000	179
22.0330000000	180
22.0630000000	200
22.0930000000	189
22.1230000000	173
22.1530000000	166
22.1830000000	195
22.2130000000	178
22.2430000000	192
22.2730000000	195
22.3030000000	172
22.3330000000	190
22.3630000000	195
22.3930000000	191
22.4230000000	186
22.4530000000	198
22.4830000000	204
22.5130000000	187
22.5430000000	185
22.5730000000	190
22.6030000000	185
22.6330000000	192
22.6630000000	195
22.6930000000	184
22.7230000000	191
22.7530000000	188
22.7830000000	182
22.8130000000	193
22.8430000000	204
22.8730000000	198
22.9030000000	183
22.9330000000	193
22.9630000000	185
22.9930000000	198
23.0230000000	185
23.0530000000	200
23.0830000000	195
23.1130000000	192
23.1430000000	195
23.1730000000	207
23.2030000000	201
23.2330000000	188
23.2630000000	221
23.2930000000	232
23.3230000000	211
23.3530000000	249
23.3830000000	239
23.4130000000	267
23.4430000000	317
23.4730000000	380
23.5030000000	607
23.5330000000	857
23.5630000000	1203
23.5930000000	1803
23.6230000000	2803
23.6530000000	3693
23.6830000000	4332
23.7130000000	3827
23.7430000000	2619
23.7730000000	1740
23.8030000000	1144
23.8330000000	789
23.8630000000	545
23.8930000000	401
23.9230000000	307
23.9530000000	286
23.9830000000	245
24.0130000000	233
24.0430000000	207
24.0730000000	196
24.1030000000	191
24.1330000000	191
24.1630000000	225
24.1930000000	229
24.2230000000	194
24.2530000000	205
24.2830000000	198
24.3130000000	199
24.3430000000	206
24.3730000000	193
24.4030000000	187
24.4330000000	172
24.4630000000	183
24.4930000000	198
24.5230000000	185
24.5530000000	183
24.5830000000	185
24.6130000000	178
24.6430000000	218
24.6730000000	179
24.7030000000	172
24.7330000000	186
24.7630000000	186
24.7930000000	196
24.8230000000	202
24.8530000000	197
24.8830000000	203
24.9130000000	186
24.9430000000	177
24.9730000000	201
25.0030000000	181
25.0330000000	182
25.0630000000	159
25.0930000000	219
25.1230000000	201
25.1530000000	196
25.1830000000	195
25.2130000000	193
25.2430000000	217
25.2730000000	163
25.3030000000	193
25.3330000000	186
25.3630000000	176
25.3930000000	182
25.4230000000	187
25.4530000000	196
25.4830000000	180
25.5130000000	200
25.5430000000	202
25.5730000000	182
25.6030000000	196
25.6330000000	204
25.6630000000	188
25.6930000000	186
25.7230000000	180
25.7530000000	187
25.7830000000	197
25.8130000000	195
25.8430000000	181
25.8730000000	176
25.9030000000	208
25.9330000000	208
25.9630000000	178
25.9930000000	177
26.0230000000	203
26.0530000000	192
26.0830000000	182
26.1130000000	190
26.1430000000	185
26.1730000000	187
26.2030000000	187
26.2330000000	185
26.2630000000	179
26.2930000000	169
26.3230000000	180
26.3530000000	184
26.3830000000	190
26.4130000000	184
26.4430000000	180
26.4730000000	192
26.5030000000	182
26.5330000000	181
26.5630000000	173
26.5930000000	174
26.6230000000	181
26.6530000000	171
26.6830000000	188
26.7130000000	176
26.7430000000	170
26.7730000000	164
26.8030000000	156
26.8330000000	176
26.8630000000	182
26.8930000000	181
26.9230000000	175
26.9530000000	161
26.9830000000	173
27.0130000000	193
27.0430000000	167
27.0730000000	166
27.1030000000	178
27.1330000000	169
27.1630000000	181
27.1930000000	185
27.2230000000	181
27.2530000000	165
27.2830000000	188
27.3130000000	189
27.3430000000	174
27.3730000000	171
27.4030000000	176
27.4330000000	177
27.4630000000	180
27.4930000000	181
27.5230000000	166
27.5530000000	152
27.5830000000	148
27.6130000000	174
27.6430000000	153
27.6730000000	175
27.7030000000	172
27.7330000000	183
27.7630000000	161
27.7930000000	152
27.8230000000	166
27.8530000000	162
27.8830000000	149
27.9130000000	153
27.9430000000	141
27.9730000000	171
28.0030000000	194
28.0330000000	179
28.0630000000	159
28.0930000000	154
28.1230000000	159
28.1530000000	172
28.1830000000	169
28.2130000000	179
28.2430000000	172
28.2730000000	172
28.3030000000	156
28.3330000000	185
28.3630000000	175
28.3930000000	190
28.4230000000	177
28.4530000000	169
28.4830000000	169
28.5130000000	154
28.5430000000	191
28.5730000000	188
28.6030000000	170
28.6330000000	174
28.6630000000	152
28.6930000000	166
28.7230000000	178
28.7530000000	167
28.7830000000	189
28.8130000000	152
28.8430000000	159
28.8730000000	161
28.9030000000	158
28.9330000000	160
28.9630000000	157
28.9930000000	142
29.0230000000	165
29.0530000000	150
29.0830000000	170
29.1130000000	177
29.1430000000	159
29.1730000000	184
29.2030000000	166
29.2330000000	150
29.2630000000	138
29.2930000000	146
29.3230000000	161
29.3530000000	159
29.3830000000	162
29.4130000000	157
29.4430000000	152
29.4730000000	152
29.5030000000	166
29.5330000000	151
29.5630000000	155
29.5930000000	144
29.6230000000	178
29.6530000000	153
29.6830000000	147
29.7130000000	163
29.7430000000	165
29.7730000000	172
29.8030000000	165
29.8330000000	164
29.8630000000	160
29.8930000000	138
29.9230000000	153
29.9530000000	143
29.9830000000	144
30.0130000000	137
30.0430000000	137
30.0730000000	143
30.1030000000	145
30.1330000000	160
30.1630000000	165
30.1930000000	143
30.2230000000	142
30.2530000000	155
30.2830000000	150
30.3130000000	134
30.3430000000	151
30.3730000000	154
30.4030000000	136
30.4330000000	156
30.4630000000	161
30.4930000000	154
30.5230000000	158
30.5530000000	164
30.5830000000	202
30.6130000000	135
30.6430000000	174
30.6730000000	159
30.7030000000	162
30.7330000000	160
30.7630000000	184
30.7930000000	147
30.8230000000	160
30.8530000000	132
30.8830000000	150
30.9130000000	160
30.9430000000	158
30.9730000000	155
31.0030000000	155
31.0330000000	166
31.0630000000	178
31.0930000000	156
31.1230000000	167
31.1530000000	168
31.1830000000	160
31.2130000000	158
31.2430000000	161
31.2730000000	161
31.3030000000	157
31.3330000000	164
31.3630000000	150
31.3930000000	183
31.4230000000	131
31.4530000000	135
31.4830000000	174
31.5130000000	151
31.5430000000	180
31.5730000000	155
31.6030000000	152
31.6330000000	169
31.6630000000	153
31.6930000000	152
31.7230000000	156
31.7530000000	150
31.7830000000	148
31.8130000000	150
31.8430000000	152
31.8730000000	148
31.9030000000	127
31.9330000000	151
31.9630000000	170
31.9930000000	143
32.0230000000	155
32.0530000000	158
32.0830000000	157
32.1130000000	145
32.1430000000	164
32.1730000000	196
32.2030000000	157
32.2330000000	144
32.2630000000	150
32.2930000000	144
32.3230000000	138
32.3530000000	171
32.3830000000	162
32.4130000000	150
32.4430000000	143
32.4730000000	155
32.5030000000	148
32.5330000000	168
32.5630000000	139
32.5930000000	140
32.6230000000	142
32.6530000000	158
32.6830000000	163
32.7130000000	162
32.7430000000	165
32.7730000000	185
32.8030000000	160
32.8330000000	167
32.8630000000	182
32.8930000000	149
32.9230000000	143
32.9530000000	165
32.9830000000	153
33.0130000000	159
33.0430000000	150
33.0730000000	162
33.1030000000	149
33.1330000000	152
33.1630000000	164
33.1930000000	176
33.2230000000	190
33.2530000000	169
33.2830000000	173
33.3130000000	185
33.3430000000	193
33.3730000000	180
33.4030000000	190
33.4330000000	204
33.4630000000	234
33.4930000000	255
33.5230000000	299
33.5530000000	411
33.5830000000	552
33.6130000000	767
33.6430000000	1055
33.6730000000	1474
33.7030000000	1823
33.7330000000	2129
33.7630000000	2080
33.7930000000	1765
33.8230000000	1291
33.8530000000	861
33.8830000000	563
33.9130000000	403
33.9430000000	312
33.9730000000	252
34.0030000000	225
34.0330000000	197
34.0630000000	196
34.0930000000	185
34.1230000000	162
34.1530000000	152
34.1830000000	181
34.2130000000	181
34.2430000000	161
34.2730000000	179
34.3030000000	147
34.3330000000	171
34.3630000000	151
34.3930000000	145
34.4230000000	160
34.4530000000	161
34.4830000000	170
34.5130000000	147
34.5430000000	173
34.5730000000	169
34.6030000000	150
34.6330000000	173
34.6630000000	170
34.6930000000	150
34.7230000000	148
34.7530000000	152
34.7830000000	149
34.8130000000	144
34.8430000000	156
34.8730000000	159
34.9030000000	160
34.9330000000	131
34.9630000000	130
34.9930000000	131
35.0230000000	167
35.0530000000	156
35.0830000000	148
35.1130000000	134
35.1430000000	141
35.1730000000	144
35.2030000000	132
35.2330000000	137
35.2630000000	163
35.2930000000	144
35.3230000000	115
35.3530000000	127
35.3830000000	159
35.4130000000	151
35.4430000000	150
35.4730000000	145
35.5030000000	142
35.5330000000	165
35.5630000000	142
35.5930000000	138
35.6230000000	137
35.6530000000	128
35.6830000000	140
35.7130000000	125
35.7430000000	153
35.7730000000	143
35.8030000000	136
35.8330000000	142
35.8630000000	124
35.8930000000	123
35.9230000000	128
35.9530000000	141
35.9830000000	144
36.0130000000	145
36.0430000000	136
36.0730000000	120
36.1030000000	133
36.1330000000	132
36.1630000000	120
36.1930000000	110
36.2230000000	139
36.2530000000	134
36.2830000000	112
36.3130000000	136
36.3430000000	136
36.3730000000	132
36.4030000000	126
36.4330000000	137
36.4630000000	145
36.4930000000	139
36.5230000000	128
36.5530000000	130
36.5830000000	136
36.6130000000	135
36.6430000000	126
36.6730000000	114
36.7030000000	124
36.7330000000	131
36.7630000000	132
36.7930000000	129
36.8230000000	129
36.8530000000	136
36.8830000000	104
36.9130000000	124
36.9430000000	131
36.9730000000	130
37.0030000000	122
37.0330000000	123
37.0630000000	132
37.0930000000	148
37.1230000000	128
37.1530000000	118
37.1830000000	102
37.2130000000	124
37.2430000000	111
37.2730000000	103
37.3030000000	120
37.3330000000	133
37.3630000000	120
37.3930000000	110
37.4230000000	115
37.4530000000	119
37.4830000000	116
37.5130000000	116
37.5430000000	121
37.5730000000	127
37.6030000000	128
37.6330000000	126
37.6630000000	128
37.6930000000	136
37.7230000000	128
37.7530000000	120
37.7830000000	116
37.8130000000	123
37.8430000000	116
37.8730000000	111
37.9030000000	124
37.9330000000	125
37.9630000000	107
37.9930000000	126
38.0230000000	125
38.0530000000	124
38.0830000000	107
38.1130000000	125
38.1430000000	111
38.1730000000	114
38.2030000000	124
38.2330000000	117
38.2630000000	117
38.2930000000	110
38.3230000000	112
38.3530000000	122
38.3830000000	114
38.4130000000	128
38.4430000000	126
38.4730000000	117
38.5030000000	106
38.5330000000	112
38.5630000000	121
38.5930000000	121
38.6230000000	107
38.6530000000	102
38.6830000000	121
38.7130000000	123
38.7430000000	119
38.7730000000	123
38.8030000000	126
38.8330000000	126
38.8630000000	124
38.8930000000	124
38.9230000000	125
38.9530000000	110
38.9830000000	97
39.0130000000	112
39.0430000000	123
39.0730000000	99
39.1030000000	122
39.1330000000	137
39.1630000000	146
39.1930000000	111
39.2230000000	131
39.2530000000	135
39.2830000000	111
39.3130000000	112
39.3430000000	119
39.3730000000	119
39.4030000000	119
39.4330000000	123
39.4630000000	122
39.4930000000	120
39.5230000000	139
39.5530000000	125
39.5830000000	105
39.6130000000	121
39.6430000000	112
39.6730000000	105
39.7030000000	114
39.7330000000	104
39.7630000000	103
39.7930000000	112
39.8230000000	118
39.8530000000	121
39.8830000000	142
39.9130000000	113
39.9430000000	125
39.9730000000	135
40.0030000000	105
40.0330000000	114
40.0630000000	105
40.0930000000	96
40.1230000000	122
40.1530000000	118
40.1830000000	127
40.2130000000	109
40.2430000000	105
40.2730000000	112
40.3030000000	106
40.3330000000	111
40.3630000000	118
40.3930000000	128
40.4230000000	128
40.4530000000	118
40.4830000000	111
40.5130000000	145
40.5430000000	121
40.5730000000	125
40.6030000000	126
40.6330000000	113
40.6630000000	129
40.6930000000	111
40.7230000000	117
40.7530000000	111
40.7830000000	111
40.8130000000	130
40.8430000000	115
40.8730000000	121
40.9030000000	108
40.9330000000	133
40.9630000000	114
40.9930000000	129
41.0230000000	128
41.0530000000	104
41.0830000000	136
41.1130000000	136
41.1430000000	140
41.1730000000	132
41.2030000000	126
41.2330000000	111
41.2630000000	136
41.2930000000	108
41.3230000000	131
41.3530000000	126
41.3830000000	124
41.4130000000	111
41.4430000000	135
41.4730000000	140
41.5030000000	157
41.5330000000	170
41.5630000000	193
41.5930000000	208
41.6230000000	211
41.6530000000	193
41.6830000000	192
41.7130000000	171
41.7430000000	163
41.7730000000	142
41.8030000000	140
41.8330000000	145
41.8630000000	139
41.8930000000	112
41.9230000000	111
41.9530000000	114
41.9830000000	117
42.0130000000	113
42.0430000000	115
42.0730000000	116
42.1030000000	112
42.1330000000	102
42.1630000000	99
42.1930000000	104
42.2230000000	105
42.2530000000	99
42.2830000000	100
42.3130000000	118
42.3430000000	115
42.3730000000	114
42.4030000000	117
42.4330000000	122
42.4630000000	128
42.4930000000	126
42.5230000000	109
42.5530000000	109
42.5830000000	121
42.6130000000	113
42.6430000000	121
42.6730000000	125
42.7030000000	119
42.7330000000	125
42.7630000000	113
42.7930000000	101
42.8230000000	120
42.8530000000	104
42.8830000000	114
42.9130000000	137
42.9430000000	124
42.9730000000	111
43.0030000000	106
43.0330000000	115
43.0630000000	117
43.0930000000	126
43.1230000000	125
43.1530000000	110
43.1830000000	98
43.2130000000	110
43.2430000000	103
43.2730000000	108
43.3030000000	128
43.3330000000	132
43.3630000000	110
43.3930000000	123
43.4230000000	107
43.4530000000	123
43.4830000000	111
43.5130000000	101
43.5430000000	105
43.5730000000	121
43.6030000000	101
43.6330000000	111
43.6630000000	121
43.6930000000	106
43.7230000000	125
43.7530000000	117
43.7830000000	109
43.8130000000	110
43.8430000000	101
43.8730000000	86
43.9030000000	101
43.9330000000	124
43.9630000000	107
43.9930000000	114
44.0230000000	103
44.0530000000	101
44.0830000000	114
44.1130000000	129
44.1430000000	111
44.1730000000	114
44.2030000000	102
44.2330000000	113
44.2630000000	110
44.2930000000	85
44.3230000000	111
44.3530000000	119
44.3830000000	113
44.4130000000	104
44.4430000000	102
44.4730000000	103
44.5030000000	102
44.5330000000	105
44.5630000000	102
44.5930000000	102
44.6230000000	98
44.6530000000	108
44.6830000000	93
44.7130000000	102
44.7430000000	108
44.7730000000	111
44.8030000000	99
44.8330000000	109
44.8630000000	111
44.8930000000	107
44.9230000000	107
44.9530000000	107
44.9830000000	103
45.0130000000	113
45.0430000000	105
45.0730000000	113
45.1030000000	107
45.1330000000	118
45.1630000000	120
45.1930000000	105
45.2230000000	100
45.2530000000	102
45.2830000000	106
45.3130000000	112
45.3430000000	120
45.3730000000	90
45.4030000000	96
45.4330000000	88
45.4630000000	97
45.4930000000	110
45.5230000000	98
45.5530000000	90
45.5830000000	94
45.6130000000	95
45.6430000000	93
45.6730000000	93
45.7030000000	101
45.7330000000	92
45.7630000000	83
45.7930000000	102
45.8230000000	92
45.8530000000	99
45.8830000000	88
45.9130000000	98
45.9430000000	121
45.9730000000	107
46.0030000000	111
46.0330000000	109
46.0630000000	108
46.0930000000	97
46.1230000000	93
46.1530000000	108
46.1830000000	93
46.2130000000	87
46.2430000000	102
46.2730000000	107
46.3030000000	96
46.3330000000	105
46.3630000000	83
46.3930000000	109
46.4230000000	91
46.4530000000	79
46.4830000000	106
46.5130000000	106
46.5430000000	96
46.5730000000	87
46.6030000000	84
46.6330000000	93
46.6630000000	87
46.6930000000	105
46.7230000000	82
46.7530000000	100
46.7830000000	87
46.8130000000	96
46.8430000000	105
46.8730000000	97
46.9030000000	79
46.9330000000	112
46.9630000000	95
46.9930000000	103
47.0230000000	103
47.0530000000	116
47.0830000000	75
47.1130000000	83
47.1430000000	100
47.1730000000	118
47.2030000000	104
47.2330000000	100
47.2630000000	118
47.2930000000	84
47.3230000000	82
47.3530000000	97
47.3830000000	102
47.4130000000	89
47.4430000000	107
47.4730000000	80
47.5030000000	87
47.5330000000	98
47.5630000000	73
47.5930000000	112
47.6230000000	92
47.6530000000	102
47.6830000000	92
47.7130000000	78
47.7430000000	90
47.7730000000	96
47.8030000000	103
47.8330000000	101
47.8630000000	79
47.8930000000	97
47.9230000000	85
47.9530000000	94
47.9830000000	98
48.0130000000	95
48.0430000000	74
48.0730000000	104
48.1030000000	108
48.1330000000	98
48.1630000000	108
48.1930000000	106
48.2230000000	109
48.2530000000	128
48.2830000000	149
48.3130000000	166
48.3430000000	215
48.3730000000	262
48.4030000000	358
48.4330000000	402
48.4630000000	405
48.4930000000	352
48.5230000000	318
48.5530000000	262
48.5830000000	198
48.6130000000	152
48.6430000000	125
48.6730000000	108
48.7030000000	96
48.7330000000	95
48.7630000000	91
48.7930000000	84
48.8230000000	85
48.8530000000	95
48.8830000000	93
48.9130000000	77
48.9430000000	72
48.9730000000	87
49.0030000000	95
49.0330000000	86
49.0630000000	82
49.0930000000	87
49.1230000000	70
49.1530000000	82
49.1830000000	82
49.2130000000	81
49.2430000000	108
49.2730000000	89
49.3030000000	78
49.3330000000	71
49.3630000000	95
49.3930000000	81
49.4230000000	69
49.4530000000	82
49.4830000000	81
49.5130000000	80
49.5430000000	82
49.5730000000	77
49.6030000000	66
49.6330000000	87
49.6630000000	89
49.6930000000	74
49.7230000000	69
49.7530000000	89
49.7830000000	91
49.8130000000	86
49.8430000000	68
49.8730000000	77
49.9030000000	86
49.9330000000	98
49.9630000000	55
49.9930000000	66
50.0230000000	81
50.0530000000	81
50.0830000000	76
50.1130000000	79
50.1430000000	72
50.1730000000	80
50.2030000000	72
50.2330000000	63
50.2630000000	67
50.2930000000	86
50.3230000000	79
50.3530000000	70
50.3830000000	67
50.4130000000	89
50.4430000000	86
50.4730000000	60
50.5030000000	84
50.5330000000	91
50.5630000000	75
50.5930000000	75
50.6230000000	80
50.6530000000	79
50.6830000000	72
50.7130000000	63
50.7430000000	64
50.7730000000	71
50.8030000000	73
50.8330000000	73
50.8630000000	85
50.8930000000	69
50.9230000000	65
50.9530000000	86
50.9830000000	85
51.0130000000	78
51.0430000000	70
51.0730000000	67
51.1030000000	74
51.1330000000	76
51.1630000000	86
51.1930000000	79
51.2230000000	72
51.2530000000	71
51.2830000000	67
51.3130000000	77
51.3430000000	76
51.3730000000	58
51.4030000000	71
51.4330000000	66
51.4630000000	70
51.4930000000	73
51.5230000000	67
51.5530000000	57
51.5830000000	64
51.6130000000	51
51.6430000000	67
51.6730000000	64
51.7030000000	51
51.7330000000	57
51.7630000000	77
51.7930000000	63
51.8230000000	66
51.8530000000	72
51.8830000000	59
51.9130000000	59
51.9430000000	70
51.9730000000	76
52.0030000000	74
52.0330000000	61
52.0630000000	57
52.0930000000	75
52.1230000000	58
52.1530000000	81
52.1830000000	70
52.2130000000	83
52.2430000000	56
52.2730000000	56
52.3030000000	68
52.3330000000	57
52.3630000000	75
52.3930000000	61
52.4230000000	74
52.4530000000	70
52.4830000000	68
52.5130000000	68
52.5430000000	68
52.5730000000	70
52.6030000000	66
52.6330000000	64
52.6630000000	63
52.6930000000	55
52.7230000000	76
52.7530000000	51
52.7830000000	72
52.8130000000	71
52.8430000000	76
52.8730000000	62
52.9030000000	65
52.9330000000	72
52.9630000000	68
52.9930000000	70
53.0230000000	64
53.0530000000	60
53.0830000000	69
53.1130000000	81
53.1430000000	71
53.1730000000	65
53.2030000000	47
53.2330000000	62
53.2630000000	62
53.2930000000	70
53.3230000000	88
53.3530000000	62
53.3830000000	69
53.4130000000	62
53.4430000000	68
53.4730000000	63
53.5030000000	55
53.5330000000	70
53.5630000000	69
53.5930000000	68
53.6230000000	61
53.6530000000	57
53.6830000000	62
53.7130000000	67
53.7430000000	63
53.7730000000	68
53.8030000000	73
53.8330000000	65
53.8630000000	66
53.8930000000	62
53.9230000000	56
53.9530000000	61
53.9830000000	72
54.0130000000	60
54.0430000000	56
54.0730000000	78
54.1030000000	69
54.1330000000	68
54.1630000000	50
54.1930000000	76
54.2230000000	70
54.2530000000	70
54.2830000000	62
54.3130000000	50
54.3430000000	60
54.3730000000	69
54.4030000000	64
54.4330000000	77
54.4630000000	59
54.4930000000	78
54.5230000000	59
54.5530000000	62
54.5830000000	81
54.6130000000	66
54.6430000000	56
54.6730000000	70
54.7030000000	75
54.7330000000	59
54.7630000000	73
54.7930000000	66
54.8230000000	68
54.8530000000	58
54.8830000000	63
54.9130000000	63
54.9430000000	72
54.9730000000	61
55.0030000000	70
55.0330000000	51
55.0630000000	73
55.0930000000	47
55.1230000000	59
55.1530000000	68
55.1830000000	53
55.2130000000	73
55.2430000000	61
55.2730000000	75
55.3030000000	58
55.3330000000	74
55.3630000000	53
55.3930000000	64
55.4230000000	63
55.4530000000	77
55.4830000000	69
55.5130000000	57
55.5430000000	74
55.5730000000	61
55.6030000000	54
55.6330000000	63
55.6630000000	50
55.6930000000	52
55.7230000000	54
55.7530000000	54
55.7830000000	59
55.8130000000	68
55.8430000000	72
55.8730000000	56
55.9030000000	63
55.9330000000	63
55.9630000000	55
55.9930000000	53
56.0230000000	57
56.0530000000	72
56.0830000000	68
56.1130000000	52
56.1430000000	40
56.1730000000	59
56.2030000000	57
56.2330000000	64
56.2630000000	58
56.2930000000	69
56.3230000000	49
56.3530000000	56
56.3830000000	49
56.4130000000	54
56.4430000000	68
56.4730000000	51
56.5030000000	61
56.5330000000	53
56.5630000000	59
56.5930000000	60
56.6230000000	56
56.6530000000	46
56.6830000000	60
56.7130000000	52
56.7430000000	56
56.7730000000	56
56.8030000000	56
56.8330000000	50
56.8630000000	53
56.8930000000	62
56.9230000000	59
56.9530000000	64
56.9830000000	48
57.0130000000	49
57.0430000000	49
57.0730000000	51
57.1030000000	63
57.1330000000	60
57.1630000000	51
57.1930000000	64
57.2230000000	64
57.2530000000	44
57.2830000000	52
57.3130000000	54
57.3430000000	51
57.3730000000	55
57.4030000000	61
57.4330000000	55
57.4630000000	59
57.4930000000	55
57.5230000000	57
57.5530000000	67
57.5830000000	45
57.6130000000	50
57.6430000000	56
57.6730000000	49
57.7030000000	56
57.7330000000	48
57.7630000000	43
57.7930000000	53
57.8230000000	56
57.8530000000	49
57.8830000000	57
57.9130000000	62
57.9430000000	47
57.9730000000	40
58.0030000000	54
58.0330000000	53
58.0630000000	54
58.0930000000	58
58.1230000000	43
58.1530000000	55
58.1830000000	61
58.2130000000	57
58.2430000000	56
58.2730000000	55
58.3030000000	56
58.3330000000	48
58.3630000000	63
58.3930000000	49
58.4230000000	48
58.4530000000	54
58.4830000000	37
58.5130000000	66
58.5430000000	52
58.5730000000	45
58.6030000000	61
58.6330000000	50
58.6630000000	47
58.6930000000	37
58.7230000000	58
58.7530000000	51
58.7830000000	56
58.8130000000	62
58.8430000000	55
58.8730000000	56
58.9030000000	60
58.9330000000	46
58.9630000000	56
58.9930000000	47
59.0230000000	47
59.0530000000	57
59.0830000000	40
59.1130000000	42
59.1430000000	51
59.1730000000	59
59.2030000000	46
59.2330000000	47
59.2630000000	47
59.2930000000	57
59.3230000000	48
59.3530000000	45
59.3830000000	54
59.4130000000	40
59.4430000000	49
59.4730000000	57
59.5030000000	46
59.5330000000	56
59.5630000000	57
59.5930000000	54
59.6230000000	50
59.6530000000	49
59.6830000000	59
59.7130000000	45
59.7430000000	34
59.7730000000	54
59.8030000000	41
59.8330000000	52
59.8630000000	44
59.8930000000	44
59.9230000000	47
59.9530000000	53
59.9830000000	47
60.0130000000	40
60.0430000000	47
60.0730000000	52
60.1030000000	55
60.1330000000	53
60.1630000000	66
60.1930000000	58
60.2230000000	62
60.2530000000	68
60.2830000000	58
60.3130000000	69
60.3430000000	62
60.3730000000	73
60.4030000000	49
60.4330000000	62
60.4630000000	71
60.4930000000	54
60.5230000000	50
60.5530000000	71
60.5830000000	53
60.6130000000	52
60.6430000000	55
60.6730000000	58
60.7030000000	48
60.7330000000	60
60.7630000000	48
60.7930000000	44
60.8230000000	43
60.8530000000	55
60.8830000000	49
60.9130000000	52
60.9430000000	48
60.9730000000	48
61.0030000000	58
61.0330000000	57
61.0630000000	58
61.0930000000	47
61.1230000000	56
61.1530000000	59
61.1830000000	40
61.2130000000	52
61.2430000000	44
61.2730000000	50
61.3030000000	63
61.3330000000	45
61.3630000000	48
61.3930000000	44
61.4230000000	52
61.4530000000	56
61.4830000000	46
61.5130000000	58
61.5430000000	32
61.5730000000	40
61.6030000000	51
61.6330000000	47
61.6630000000	33
61.6930000000	43
61.7230000000	54
61.7530000000	39
61.7830000000	49
61.8130000000	50
61.8430000000	46
61.8730000000	44
61.9030000000	41
61.9330000000	49
61.9630000000	45
61.9930000000	45
62.0230000000	65
62.0530000000	60
62.0830000000	52
62.1130000000	45
62.1430000000	55
62.1730000000	40
62.2030000000	57
62.2330000000	58
62.2630000000	49
62.2930000000	44
62.3230000000	47
62.3530000000	61
62.3830000000	42
62.4130000000	48
62.4430000000	47
62.4730000000	44
62.5030000000	38
62.5330000000	40
62.5630000000	45
62.5930000000	54
62.6230000000	57
62.6530000000	56
62.6830000000	59
62.7130000000	55
62.7430000000	52
62.7730000000	57
62.8030000000	57
62.8330000000	42
62.8630000000	46
62.8930000000	40
62.9230000000	43
62.9530000000	39
62.9830000000	45
63.0130000000	47
63.0430000000	52
63.0730000000	54
63.1030000000	44
63.1330000000	47
63.1630000000	46
63.1930000000	49
63.2230000000	56
63.2530000000	53
63.2830000000	48
63.3130000000	52
63.3430000000	59
63.3730000000	49
63.4030000000	44
63.4330000000	56
63.4630000000	53
63.4930000000	56
63.5230000000	55
63.5530000000	39
63.5830000000	39
63.6130000000	42
63.6430000000	51
63.6730000000	46
63.7030000000	44
63.7330000000	47
63.7630000000	43
63.7930000000	40
63.8230000000	49
63.8530000000	51
63.8830000000	56
63.9130000000	52
63.9430000000	46
63.9730000000	49
64.0030000000	51
64.0330000000	52
64.0630000000	54
64.0930000000	47
64.1230000000	48
64.1530000000	58
64.1830000000	45
64.2130000000	49
64.2430000000	50
64.2730000000	58
64.3030000000	46
64.3330000000	46
64.3630000000	59
64.3930000000	41
64.4230000000	54
64.4530000000	49
64.4830000000	48
64.5130000000	60
64.5430000000	49
64.5730000000	43
64.6030000000	43
64.6330000000	51
64.6630000000	46
64.6930000000	41
64.7230000000	38
64.7530000000	33
64.7830000000	42
64.8130000000	52
64.8430000000	47
64.8730000000	45
64.9030000000	47
64.9330000000	46
64.9630000000	48
64.9930000000	53
65.0230000000	49
65.0530000000	58
65.0830000000	46
65.1130000000	42
65.1430000000	51
65.1730000000	47
65.2030000000	45
65.2330000000	56
65.2630000000	44
65.2930000000	48
65.3230000000	44
65.3530000000	44
65.3830000000	53
65.4130000000	51
65.4430000000	47
65.4730000000	47
65.5030000000	52
65.5330000000	50
65.5630000000	59
65.5930000000	41
65.6230000000	46
65.6530000000	51
65.6830000000	48
65.7130000000	53
65.7430000000	54
65.7730000000	42
65.8030000000	42
65.8330000000	44
65.8630000000	57
65.8930000000	45
65.9230000000	51
65.9530000000	43
65.9830000000	58
66.0130000000	50
66.0430000000	46
66.0730000000	62
66.1030000000	42
66.1330000000	55
66.1630000000	55
66.1930000000	73
66.2230000000	46
66.2530000000	37
66.2830000000	37
66.3130000000	44
66.3430000000	44
66.3730000000	55
66.4030000000	45
66.4330000000	44
66.4630000000	44
66.4930000000	50
66.5230000000	45
66.5530000000	47
66.5830000000	56
66.6130000000	52
66.6430000000	43
66.6730000000	54
66.7030000000	49
66.7330000000	38
66.7630000000	47
66.7930000000	49
66.8230000000	32
66.8530000000	43
66.8830000000	53
66.9130000000	42
66.9430000000	49
66.9730000000	52
67.0030000000	46
67.0330000000	38
67.0630000000	50
67.0930000000	48
67.1230000000	45
67.1530000000	46
67.1830000000	48
67.2130000000	49
67.2430000000	44
67.2730000000	38
67.3030000000	48
67.3330000000	40
67.3630000000	33
67.3930000000	41
67.4230000000	53
67.4530000000	57
67.4830000000	43
67.5130000000	47
67.5430000000	51
67.5730000000	47
67.6030000000	52
67.6330000000	39
67.6630000000	39
67.6930000000	57
67.7230000000	50
67.7530000000	38
67.7830000000	43
67.8130000000	54
67.8430000000	48
67.8730000000	42
67.9030000000	57
67.9330000000	50
67.9630000000	52
67.9930000000	54
68.0230000000	50
68.0530000000	56
68.0830000000	57
68.1130000000	43
68.1430000000	50
68.1730000000	49
68.2030000000	40
68.2330000000	39
68.2630000000	42
68.2930000000	49
68.3230000000	41
68.3530000000	68
68.3830000000	53
68.4130000000	50
68.4430000000	42
68.4730000000	46
68.5030000000	38
68.5330000000	46
68.5630000000	51
68.5930000000	60
68.6230000000	34
68.6530000000	40
68.6830000000	51
68.7130000000	37
68.7430000000	46
68.7730000000	49
68.8030000000	45
68.8330000000	47
68.8630000000	48
68.8930000000	46
68.9230000000	37
68.9530000000	48
68.9830000000	45
69.0130000000	35
69.0430000000	57
69.0730000000	56
69.1030000000	40
69.1330000000	49
69.1630000000	49
69.1930000000	54
69.2230000000	51
69.2530000000	49
69.2830000000	43
69.3130000000	53
69.3430000000	50
69.3730000000	40
69.4030000000	47
69.4330000000	42
69.4630000000	36
69.4930000000	46
69.5230000000	47
69.5530000000	46
69.5830000000	43
69.6130000000	54
69.6430000000	57
69.6730000000	48
69.7030000000	46
69.7330000000	47
69.7630000000	45
69.7930000000	49
69.8230000000	36
69.8530000000	40
69.8830000000	39
69.9130000000	47
69.9430000000	50
69.9730000000	49
70.0030000000	44
70.0330000000	59
70.0630000000	60
70.0930000000	50
70.1230000000	57
70.1530000000	35
70.1830000000	37
70.2130000000	43
70.2430000000	44
70.2730000000	47
70.3030000000	49
70.3330000000	45
70.3630000000	39
70.3930000000	57
70.4230000000	45
70.4530000000	51
70.4830000000	45
70.5130000000	54
70.5430000000	47
70.5730000000	48
70.6030000000	50
70.6330000000	42
70.6630000000	42
70.6930000000	50
70.7230000000	42
70.7530000000	44
70.7830000000	40
70.8130000000	44
70.8430000000	56
70.8730000000	49
70.9030000000	33
70.9330000000	50
70.9630000000	44
70.9930000000	40
71.0230000000	58
71.0530000000	48
71.0830000000	39
71.1130000000	58
71.1430000000	52
71.1730000000	42
71.2030000000	42
71.2330000000	35
71.2630000000	47
71.2930000000	46
71.3230000000	36
71.3530000000	42
71.3830000000	46
71.4130000000	50
71.4430000000	44
71.4730000000	41
71.5030000000	42
71.5330000000	51
71.5630000000	56
71.5930000000	43
71.6230000000	43
71.6530000000	51
71.6830000000	35
71.7130000000	44
71.7430000000	43
71.7730000000	42
71.8030000000	45
71.8330000000	45
71.8630000000	46
71.8930000000	42
71.9230000000	51
71.9530000000	41
71.9830000000	48
72.0130000000	45
72.0430000000	39
72.0730000000	49
72.1030000000	36
72.1330000000	48
72.1630000000	46
72.1930000000	41
72.2230000000	41
72.2530000000	49
72.2830000000	45
72.3130000000	47
72.3430000000	48
72.3730000000	42
72.4030000000	45
72.4330000000	43
72.4630000000	39
72.4930000000	42
72.5230000000	45
72.5530000000	30
72.5830000000	38
72.6130000000	37
72.6430000000	42
72.6730000000	44
72.7030000000	52
72.7330000000	31
72.7630000000	53
72.7930000000	44
72.8230000000	45
72.8530000000	56
72.8830000000	51
72.9130000000	51
72.9430000000	45
72.9730000000	37
73.0030000000	52
73.0330000000	56
73.0630000000	50
73.0930000000	53
73.1230000000	66
73.1530000000	47
73.1830000000	42
73.2130000000	42
73.2430000000	56
73.2730000000	49
73.3030000000	48
73.3330000000	47
73.3630000000	51
73.3930000000	41
73.4230000000	50
73.4530000000	36
73.4830000000	45
73.5130000000	56
73.5430000000	47
73.5730000000	47
73.6030000000	54
73.6330000000	43
73.6630000000	42
73.6930000000	41
73.7230000000	37
73.7530000000	53
73.7830000000	49
73.8130000000	42
73.8430000000	51
73.8730000000	59
73.9030000000	56
73.9330000000	48
73.9630000000	48
73.9930000000	51
74.0230000000	41
74.0530000000	35
74.0830000000	48
74.1130000000	40
74.1430000000	46
74.1730000000	51
74.2030000000	40
74.2330000000	50
74.2630000000	48
74.2930000000	50
74.3230000000	33
74.3530000000	51
74.3830000000	50
74.4130000000	43
74.4430000000	35
74.4730000000	52
74.5030000000	52
74.5330000000	45
74.5630000000	48
74.5930000000	51
74.6230000000	46
74.6530000000	43
74.6830000000	42
74.7130000000	45
74.7430000000	48
74.7730000000	42
74.8030000000	44
74.8330000000	39
74.8630000000	44
74.8930000000	45
74.9230000000	44
74.9530000000	43
74.9830000000	42
75.0130000000	51
75.0430000000	40
75.0730000000	35
75.1030000000	38
75.1330000000	55
75.1630000000	38
75.1930000000	42
75.2230000000	40
75.2530000000	45
75.2830000000	39
75.3130000000	42
75.3430000000	48
75.3730000000	49
75.4030000000	51
75.4330000000	49
75.4630000000	45
75.4930000000	53
75.5230000000	42
75.5530000000	51
75.5830000000	42
75.6130000000	38
75.6430000000	47
75.6730000000	36
75.7030000000	43
75.7330000000	51
75.7630000000	52
75.7930000000	55
75.8230000000	57
75.8530000000	53
75.8830000000	56
75.9130000000	50
75.9430000000	46
75.9730000000	55
76.0030000000	50
76.0330000000	58
76.0630000000	66
76.0930000000	58
76.1230000000	54
76.1530000000	55
76.1830000000	47
76.2130000000	53
76.2430000000	52
76.2730000000	49
76.3030000000	46
76.3330000000	31
76.3630000000	58
76.3930000000	37
76.4230000000	46
76.4530000000	52
76.4830000000	55
76.5130000000	42
76.5430000000	49
76.5730000000	41
76.6030000000	39
76.6330000000	47
76.6630000000	47
76.6930000000	33
76.7230000000	45
76.7530000000	44
76.7830000000	51
76.8130000000	44
76.8430000000	41
76.8730000000	33
76.9030000000	35
76.9330000000	43
76.9630000000	40
76.9930000000	48
77.0230000000	41
77.0530000000	49
77.0830000000	46
77.1130000000	46
77.1430000000	36
77.1730000000	34
77.2030000000	58
77.2330000000	37
77.2630000000	60
77.2930000000	38
77.3230000000	47
77.3530000000	30
77.3830000000	42
77.4130000000	41
77.4430000000	40
77.4730000000	45
77.5030000000	39
77.5330000000	48
77.5630000000	48
77.5930000000	43
77.6230000000	40
77.6530000000	46
77.6830000000	47
77.7130000000	35
77.7430000000	42
77.7730000000	33
77.8030000000	44
77.8330000000	48
77.8630000000	44
77.8930000000	39
77.9230000000	37
77.9530000000	43
77.9830000000	40
78.0130000000	42
78.0430000000	37
78.0730000000	41
78.1030000000	41
78.1330000000	45
78.1630000000	41
78.1930000000	36
78.2230000000	28
78.2530000000	42
78.2830000000	37
78.3130000000	51
78.3430000000	42
78.3730000000	39
78.4030000000	49
78.4330000000	33
78.4630000000	47
78.4930000000	41
78.5230000000	48
78.5530000000	43
78.5830000000	50
78.6130000000	32
78.6430000000	38
78.6730000000	32
78.7030000000	32
78.7330000000	43
78.7630000000	35
78.7930000000	42
78.8230000000	41
78.8530000000	40
78.8830000000	39
78.9130000000	45
78.9430000000	40
78.9730000000	39
79.0030000000	42
79.0330000000	44
79.0630000000	50
79.0930000000	38
79.1230000000	55
79.1530000000	50
79.1830000000	39
79.2130000000	42
79.2430000000	53
79.2730000000	43
79.3030000000	32
79.3330000000	42
79.3630000000	48
79.3930000000	51
79.4230000000	36
79.4530000000	46
79.4830000000	50
79.5130000000	49
79.5430000000	45
79.5730000000	35
79.6030000000	36
79.6330000000	41
79.6630000000	48
79.6930000000	38
79.7230000000	37
79.7530000000	47
79.7830000000	38
79.8130000000	44
79.8430000000	44
79.8730000000	49
79.9030000000	33
79.9330000000	30
79.9630000000	42
79.9930000000	45
80.0230000000	42
80.0530000000	39
80.0830000000	37
80.1130000000	36
80.1430000000	44
80.1730000000	41
80.2030000000	45
80.2330000000	37
80.2630000000	37
80.2930000000	39
80.3230000000	43
80.3530000000	33
80.3830000000	44
80.4130000000	45
80.4430000000	35
80.4730000000	43
80.5030000000	41
80.5330000000	37
80.5630000000	41
80.5930000000	52
80.6230000000	36
80.6530000000	42
80.6830000000	41
80.7130000000	41
80.7430000000	49
80.7730000000	31
80.8030000000	43
80.8330000000	53
80.8630000000	41
80.8930000000	46
80.9230000000	43
80.9530000000	43
80.9830000000	45
81.0130000000	52
81.0430000000	47
81.0730000000	47
81.1030000000	40
81.1330000000	43
81.1630000000	34
81.1930000000	34
81.2230000000	41
81.2530000000	25
81.2830000000	44
81.3130000000	37
81.3430000000	39
81.3730000000	41
81.4030000000	41
81.4330000000	54
81.4630000000	36
81.4930000000	45
81.5230000000	45
81.5530000000	46
81.5830000000	37
81.6130000000	43
81.6430000000	35
81.6730000000	32
81.7030000000	45
81.7330000000	37
81.7630000000	38
81.7930000000	50
81.8230000000	31
81.8530000000	37
81.8830000000	40
81.9130000000	40
81.9430000000	42
81.9730000000	29
82.0030000000	40
82.0330000000	35
82.0630000000	35
82.0930000000	36
82.1230000000	37
82.1530000000	34
82.1830000000	40
82.2130000000	42
82.2430000000	44
82.2730000000	36
82.3030000000	32
82.3330000000	40
82.3630000000	43
82.3930000000	40
82.4230000000	45
82.4530000000	47
82.4830000000	38
82.5130000000	36
82.5430000000	40
82.5730000000	43
82.6030000000	33
82.6330000000	36
82.6630000000	40
82.6930000000	37
82.7230000000	38
82.7530000000	42
82.7830000000	51
82.8130000000	41
82.8430000000	47
82.8730000000	41
82.9030000000	45
82.9330000000	54
82.9630000000	39
82.9930000000	39
83.0230000000	34
83.0530000000	48
83.0830000000	37
83.1130000000	41
83.1430000000	40
83.1730000000	37
83.2030000000	40
83.2330000000	49
83.2630000000	36
83.2930000000	49
83.3230000000	37
83.3530000000	49
83.3830000000	47
83.4130000000	36
83.4430000000	38
83.4730000000	32
83.5030000000	46
83.5330000000	37
83.5630000000	38
83.5930000000	45
83.6230000000	49
83.6530000000	52
83.6830000000	41
83.7130000000	50
83.7430000000	34
83.7730000000	53
83.8030000000	46
83.8330000000	38
83.8630000000	45
83.8930000000	38
83.9230000000	42
83.9530000000	43
83.9830000000	46
84.0130000000	36
84.0430000000	30
84.0730000000	35
84.1030000000	30
84.1330000000	36
84.1630000000	32
84.1930000000	44
84.2230000000	42
84.2530000000	44
84.2830000000	34
84.3130000000	36
84.3430000000	44
84.3730000000	48
84.4030000000	49
84.4330000000	45
84.4630000000	32
84.4930000000	33
84.5230000000	40
84.5530000000	43
84.5830000000	34
84.6130000000	29
84.6430000000	39
84.6730000000	38
84.7030000000	35
84.7330000000	41
84.7630000000	34
84.7930000000	35
84.8230000000	34
84.8530000000	27
84.8830000000	40
84.9130000000	43
84.9430000000	32
84.9730000000	40
85.0030000000	33
85.0330000000	43
85.0630000000	34
85.0930000000	34
85.1230000000	45
85.1530000000	39
85.1830000000	39
85.2130000000	41
85.2430000000	44
85.2730000000	45
85.3030000000	44
85.3330000000	31
85.3630000000	35
85.3930000000	43
85.4230000000	26
85.4530000000	31
85.4830000000	39
85.5130000000	42
85.5430000000	34
85.5730000000	34
85.6030000000	36
85.6330000000	40
85.6630000000	35
85.6930000000	38
85.7230000000	42
85.7530000000	45
85.7830000000	39
85.8130000000	31
85.8430000000	43
85.8730000000	44
85.9030000000	34
85.9330000000	36
85.9630000000	51
85.9930000000	43
86.0230000000	35
86.0530000000	42
86.0830000000	43
86.1130000000	46
86.1430000000	43
86.1730000000	39
86.2030000000	43
86.2330000000	44
86.2630000000	51
86.2930000000	47
86.3230000000	46
86.3530000000	48
86.3830000000	42
86.4130000000	42
86.4430000000	48
86.4730000000	37
86.5030000000	34
86.5330000000	31
86.5630000000	36
86.5930000000	32
86.6230000000	35
86.6530000000	39
86.6830000000	36
86.7130000000	33
86.7430000000	36
86.7730000000	32
86.8030000000	41
86.8330000000	37
86.8630000000	35
86.8930000000	42
86.9230000000	39
86.9530000000	38
86.9830000000	40
87.0130000000	38
87.0430000000	41
87.0730000000	39
87.1030000000	41
87.1330000000	42
87.1630000000	37
87.1930000000	45
87.2230000000	47
87.2530000000	41
87.2830000000	36
87.3130000000	34
87.3430000000	43
87.3730000000	46
87.4030000000	43
87.4330000000	39
87.4630000000	37
87.4930000000	40
87.5230000000	40
87.5530000000	28
87.5830000000	39
87.6130000000	38
87.6430000000	43
87.6730000000	45
87.7030000000	37
87.7330000000	32
87.7630000000	30
87.7930000000	38
87.8230000000	39
87.8530000000	52
87.8830000000	41
87.9130000000	49
87.9430000000	47
87.9730000000	44
88.0030000000	39
88.0330000000	37
88.0630000000	34
88.0930000000	46
88.1230000000	41
88.1530000000	41
88.1830000000	33
88.2130000000	32
88.2430000000	44
88.2730000000	38
88.3030000000	35
88.3330000000	41
88.3630000000	34
88.3930000000	40
88.4230000000	44
88.4530000000	33
88.4830000000	36
88.5130000000	48
88.5430000000	46
88.5730000000	44
88.6030000000	40
88.6330000000	28
88.6630000000	38
88.6930000000	41
88.7230000000	36
88.7530000000	44
88.7830000000	34
88.8130000000	36
88.8430000000	31
88.8730000000	45
88.9030000000	34
88.9330000000	30
88.9630000000	40
88.9930000000	39
89.0230000000	36
89.0530000000	34
89.0830000000	30
89.1130000000	42
89.1430000000	44
89.1730000000	35
89.2030000000	40
89.2330000000	41
89.2630000000	52
89.2930000000	29
89.3230000000	40
89.3530000000	52
89.3830000000	37
89.4130000000	30
89.4430000000	36
89.4730000000	40
89.5030000000	46
89.5330000000	35
89.5630000000	35
89.5930000000	46
89.6230000000	45
89.6530000000	41
89.6830000000	40
89.7130000000	37
89.7430000000	44
89.7730000000	51
89.8030000000	40
89.8330000000	33
89.8630000000	34
89.8930000000	32
89.9230000000	49
89.9530000000	45
89.9830000000	29
90.0130000000	33
90.0430000000	41
90.0730000000	50
90.1030000000	38
90.1330000000	29
90.1630000000	39
90.1930000000	40
90.2230000000	48
90.2530000000	29
90.2830000000	40
90.3130000000	40
90.3430000000	42
90.3730000000	40
90.4030000000	47
90.4330000000	30
90.4630000000	44
90.4930000000	46
90.5230000000	53
90.5530000000	44
90.5830000000	44
90.6130000000	37
90.6430000000	44
90.6730000000	39
90.7030000000	44
90.7330000000	41
90.7630000000	46
90.7930000000	44
90.8230000000	45
90.8530000000	36
90.8830000000	40
90.9130000000	45
90.9430000000	47
90.9730000000	43
91.0030000000	41
91.0330000000	41
91.0630000000	37
91.0930000000	37
91.1230000000	48
91.1530000000	45
91.1830000000	33
91.2130000000	37
91.2430000000	39
91.2730000000	44
91.3030000000	33
91.3330000000	36
91.3630000000	38
91.3930000000	43
91.4230000000	38
91.4530000000	40
91.4830000000	32
91.5130000000	37
91.5430000000	37
91.5730000000	39
91.6030000000	40
91.6330000000	38
91.6630000000	47
91.6930000000	43
91.7230000000	32
91.7530000000	51
91.7830000000	39
91.8130000000	34
91.8430000000	37
91.8730000000	51
91.9030000000	36
91.9330000000	29
91.9630000000	41
91.9930000000	52
92.0230000000	44
92.0530000000	41
92.0830000000	51
92.1130000000	40
92.1430000000	44
92.1730000000	41
92.2030000000	42
92.2330000000	34
92.2630000000	34
92.2930000000	39
92.3230000000	32
92.3530000000	44
92.3830000000	46
92.4130000000	42
92.4430000000	40
92.4730000000	45
92.5030000000	24
92.5330000000	44
92.5630000000	44
92.5930000000	38
92.6230000000	37
92.6530000000	43
92.6830000000	41
92.7130000000	41
92.7430000000	39
92.7730000000	38
92.8030000000	33
92.8330000000	35
92.8630000000	50
92.8930000000	43
92.9230000000	37
92.9530000000	43
92.9830000000	44
93.0130000000	40
93.0430000000	37
93.0730000000	44
93.1030000000	37
93.1330000000	37
93.1630000000	41
93.1930000000	31
93.2230000000	42
93.2530000000	49
93.2830000000	32
93.3130000000	37
93.3430000000	40
93.3730000000	39
93.4030000000	40
93.4330000000	47
93.4630000000	40
93.4930000000	33
93.5230000000	30
93.5530000000	37
93.5830000000	34
93.6130000000	45
93.6430000000	38
93.6730000000	28
93.7030000000	43
93.7330000000	44
93.7630000000	40
93.7930000000	48
93.8230000000	43
93.8530000000	31
93.8830000000	26
93.9130000000	37
93.9430000000	38
93.9730000000	32
94.0030000000	37
94.0330000000	48
94.0630000000	37
94.0930000000	40
94.1230000000	46
94.1530000000	53
94.1830000000	52
94.2130000000	45
94.2430000000	35
94.2730000000	45
94.3030000000	37
94.3330000000	36
94.3630000000	31
94.3930000000	43
94.4230000000	42
94.4530000000	46
94.4830000000	44
94.5130000000	45
94.5430000000	40
94.5730000000	40
94.6030000000	40
94.6330000000	31
94.6630000000	35
94.6930000000	44
94.7230000000	42
94.7530000000	42
94.7830000000	40
94.8130000000	34
94.8430000000	43
94.8730000000	39
94.9030000000	48
94.9330000000	37
94.9630000000	39
94.9930000000	47
95.0230000000	41
95.0530000000	39
95.0830000000	53
95.1130000000	38
95.1430000000	35
95.1730000000	44
95.2030000000	48
95.2330000000	42
95.2630000000	61
95.2930000000	52
95.3230000000	44
95.3530000000	30
95.3830000000	45
95.4130000000	36
95.4430000000	26
95.4730000000	47
95.5030000000	40
95.5330000000	42
95.5630000000	35
95.5930000000	51
95.6230000000	37
95.6530000000	40
95.6830000000	45
95.7130000000	44
95.7430000000	34
95.7730000000	34
95.8030000000	37
95.8330000000	38
95.8630000000	49
95.8930000000	36
95.9230000000	39
95.9530000000	42
95.9830000000	52
96.0130000000	52
96.0430000000	42
96.0730000000	39
96.1030000000	36
96.1330000000	35
96.1630000000	48
96.1930000000	49
96.2230000000	43
96.2530000000	40
96.2830000000	46
96.3130000000	42
96.3430000000	41
96.3730000000	35
96.4030000000	38
96.4330000000	38
96.4630000000	37
96.4930000000	43
96.5230000000	47
96.5530000000	38
96.5830000000	41
96.6130000000	41
96.6430000000	43
96.6730000000	39
96.7030000000	32
96.7330000000	34
96.7630000000	36
96.7930000000	35
96.8230000000	41
96.8530000000	48
96.8830000000	29
96.9130000000	44
96.9430000000	32
96.9730000000	32
97.0030000000	45
97.0330000000	55
97.0630000000	29
97.0930000000	45
97.1230000000	39
97.1530000000	41
97.1830000000	34
97.2130000000	37
97.2430000000	56
97.2730000000	48
97.3030000000	36
97.3330000000	33
97.3630000000	29
97.3930000000	42
97.4230000000	51
97.4530000000	37
97.4830000000	30
97.5130000000	45
97.5430000000	42
97.5730000000	35
97.6030000000	40
97.6330000000	45
97.6630000000	42
97.6930000000	47
97.7230000000	60
97.7530000000	43
97.7830000000	37
97.8130000000	38
97.8430000000	32
97.8730000000	36
97.9030000000	51
97.9330000000	38
97.9630000000	51
97.9930000000	41
98.0230000000	37
98.0530000000	45
98.0830000000	34
98.1130000000	46
98.1430000000	33
98.1730000000	46
98.2030000000	61
98.2330000000	31
98.2630000000	49
98.2930000000	42
98.3230000000	70
98.3530000000	43
98.3830000000	36
98.4130000000	35
98.4430000000	53
98.4730000000	40
98.5030000000	34
98.5330000000	43
98.5630000000	49
98.5930000000	33
98.6230000000	44
98.6530000000	42
98.6830000000	36
98.7130000000	40
98.7430000000	41
98.7730000000	40
98.8030000000	40
98.8330000000	42
98.8630000000	43
98.8930000000	34
98.9230000000	32
98.9530000000	47
98.9830000000	46
99.0130000000	35
99.0430000000	44
99.0730000000	40
99.1030000000	43
99.1330000000	35
99.1630000000	40
99.1930000000	31
99.2230000000	29
99.2530000000	32
99.2830000000	43
99.3130000000	45
99.3430000000	34
99.3730000000	42
99.4030000000	45
99.4330000000	28
99.4630000000	45
99.4930000000	27
99.5230000000	47
99.5530000000	45
99.5830000000	34
99.6130000000	35
99.6430000000	49
99.6730000000	40
99.7030000000	20
99.7330000000	37
99.7630000000	40
99.7930000000	47
99.8230000000	51
99.8530000000	50
99.8830000000	48
99.9130000000	34
99.9430000000	31
99.9730000000	41
100.0030000000	45
100.0330000000	36
100.0630000000	26
100.0930000000	35
100.1230000000	47
100.1530000000	45
100.1830000000	42
100.2130000000	41
100.2430000000	38
100.2730000000	36
100.3030000000	38
100.3330000000	52
100.3630000000	35
100.3930000000	44
100.4230000000	40
100.4530000000	41
100.4830000000	39
100.5130000000	36
100.5430000000	46
100.5730000000	49
100.6030000000	36
100.6330000000	34
100.6630000000	40
100.6930000000	38
100.7230000000	36
100.7530000000	39
100.7830000000	30
100.8130000000	28
100.8430000000	41
100.8730000000	43
100.9030000000	37
100.9330000000	38
100.9630000000	43
100.9930000000	29
101.0230000000	33
101.0530000000	42
101.0830000000	26
101.1130000000	38
101.1430000000	38
101.1730000000	51
101.2030000000	42
101.2330000000	40
101.2630000000	36
101.2930000000	36
101.3230000000	25
101.3530000000	44
101.3830000000	41
101.4130000000	39
101.4430000000	39
101.4730000000	39
101.5030000000	38
101.5330000000	39
101.5630000000	45
101.5930000000	41
101.6230000000	37
101.6530000000	46
101.6830000000	49
101.7130000000	42
101.7430000000	48
101.7730000000	48
101.8030000000	51
101.8330000000	37
101.8630000000	36
101.8930000000	34
101.9230000000	38
101.9530000000	37
101.9830000000	47
102.0130000000	48
102.0430000000	33
102.0730000000	44
102.1030000000	48
102.1330000000	36
102.1630000000	32
102.1930000000	34
102.2230000000	28
102.2530000000	38
102.2830000000	28
102.3130000000	36
102.3430000000	36
102.3730000000	39
102.4030000000	42
102.4330000000	33
102.4630000000	43
102.4930000000	40
102.5230000000	38
102.5530000000	36
102.5830000000	28
102.6130000000	35
102.6430000000	44
102.6730000000	49
102.7030000000	34
102.7330000000	31
102.7630000000	34
102.7930000000	42
102.8230000000	33
102.8530000000	39
102.8830000000	43
102.9130000000	44
102.9430000000	40
102.9730000000	34
103.0030000000	31
103.0330000000	34
103.0630000000	46
103.0930000000	43
103.1230000000	36
103.1530000000	31
103.1830000000	35
103.2130000000	36
103.2430000000	28
103.2730000000	42
103.3030000000	54
103.3330000000	33
103.3630000000	51
103.3930000000	49
103.4230000000	42
103.4530000000	41
103.4830000000	36
103.5130000000	46
103.5430000000	28
103.5730000000	41
103.6030000000	40
103.6330000000	37
103.6630000000	47
103.6930000000	44
103.7230000000	41
103.7530000000	42
103.7830000000	38
103.8130000000	38
103.8430000000	34
103.8730000000	39
103.9030000000	55
103.9330000000	45
103.9630000000	50
103.9930000000	30
104.0230000000	32
104.0530000000	30
104.0830000000	37
104.1130000000	45
104.1430000000	48
104.1730000000	38
104.2030000000	41
104.2330000000	45
104.2630000000	39
104.2930000000	34
104.3230000000	28
104.3530000000	39
104.3830000000	40
104.4130000000	29
104.4430000000	43
104.4730000000	38
104.5030000000	42
104.5330000000	39
104.5630000000	36
104.5930000000	37
104.6230000000	36
104.6530000000	46
104.6830000000	43
104.7130000000	26
104.7430000000	37
104.7730000000	39
104.8030000000	40
104.8330000000	35
104.8630000000	36
104.8930000000	39
104.9230000000	35
104.9530000000	38
104.9830000000	37
105.0130000000	31
105.0430000000	35
105.0730000000	40
105.1030000000	35
105.1330000000	36
105.1630000000	36
105.1930000000	35
105.2230000000	42
105.2530000000	38
105.2830000000	46
105.3130000000	36
105.3430000000	30
105.3730000000	36
105.4030000000	39
105.4330000000	41
105.4630000000	30
105.4930000000	36
105.5230000000	39
105.5530000000	43
105.5830000000	47
105.6130000000	45
105.6430000000	43
105.6730000000	40
105.7030000000	51
105.7330000000	49
105.7630000000	43
105.7930000000	32
105.8230000000	40
105.8530000000	36
105.8830000000	43
105.9130000000	35
105.9430000000	34
105.9730000000	39
106.0030000000	44
106.0330000000	51
106.0630000000	39
106.0930000000	39
106.1230000000	34
106.1530000000	44
106.1830000000	42
106.2130000000	34
106.2430000000	46
106.2730000000	44
106.3030000000	37
106.3330000000	38
106.3630000000	53
106.3930000000	44
106.4230000000	44
106.4530000000	34
106.4830000000	46
106.5130000000	42
106.5430000000	30
106.5730000000	41
106.6030000000	33
106.6330000000	45
106.6630000000	37
106.6930000000	39
106.7230000000	38
106.7530000000	25
106.7830000000	37
106.8130000000	40
106.8430000000	51
106.8730000000	34
106.9030000000	44
106.9330000000	32
106.9630000000	40
106.9930000000	38
107.0230000000	37
107.0530000000	36
107.0830000000	42
107.1130000000	49
107.1430000000	44
107.1730000000	39
107.2030000000	39
107.2330000000	47
107.2630000000	37
107.2930000000	36
107.3230000000	43
107.3530000000	45
107.3830000000	44
107.4130000000	38
107.4430000000	43
107.4730000000	42
107.5030000000	46
107.5330000000	39
107.5630000000	33
107.5930000000	26
107.6230000000	40
107.6530000000	52
107.6830000000	40
107.7130000000	39
107.7430000000	32
107.7730000000	35
107.8030000000	41
107.8330000000	35
107.8630000000	31
107.8930000000	30
107.9230000000	38
107.9530000000	45
107.9830000000	43
108.0130000000	41
108.0430000000	32
108.0730000000	41
108.1030000000	38
108.1330000000	42
108.1630000000	22
108.1930000000	37
108.2230000000	44
108.2530000000	34
108.2830000000	34
108.3130000000	34
108.3430000000	40
108.3730000000	43
108.4030000000	40
108.4330000000	31
108.4630000000	42
108.4930000000	45
108.5230000000	49
108.5530000000	34
108.5830000000	46
108.6130000000	37
108.6430000000	47
108.6730000000	43
108.7030000000	49
108.7330000000	31
108.7630000000	52
108.7930000000	40
108.8230000000	36
108.8530000000	21
108.8830000000	37
108.9130000000	44
108.9430000000	46
108.9730000000	41
109.0030000000	49
109.0330000000	45
109.0630000000	50
109.0930000000	37
109.1230000000	28
109.1530000000	39
109.1830000000	49
109.2130000000	35
109.2430000000	26
109.2730000000	39
109.3030000000	38
109.3330000000	31
109.3630000000	31
109.3930000000	35
109.4230000000	41
109.4530000000	31
109.4830000000	35
109.5130000000	35
109.5430000000	41
109.5730000000	49
109.6030000000	38
109.6330000000	39
109.6630000000	44
109.6930000000	35
109.7230000000	46
109.7530000000	39
109.7830000000	36
109.8130000000	41
109.8430000000	42
109.8730000000	42
109.9030000000	52
109.9330000000	38
109.9630000000	42
109.9930000000	33
110.0230000000	43
110.0530000000	36
110.0830000000	41
110.1130000000	40
110.1430000000	40
110.1730000000	55
110.2030000000	44
110.2330000000	45
110.2630000000	38
110.2930000000	31
110.3230000000	50
110.3530000000	31
110.3830000000	35
110.4130000000	51
110.4430000000	38
110.4730000000	34
110.5030000000	38
110.5330000000	36
110.5630000000	40
110.5930000000	37
110.6230000000	40
110.6530000000	41
110.6830000000	46
110.7130000000	41
110.7430000000	36
110.7730000000	44
110.8030000000	39
110.8330000000	27
110.8630000000	45
110.8930000000	50
110.9230000000	36
110.9530000000	33
110.9830000000	36
111.0130000000	33
111.0430000000	35
111.0730000000	47
111.1030000000	44
111.1330000000	41
111.1630000000	39
111.1930000000	39
111.2230000000	47
111.2530000000	38
111.2830000000	36
111.3130000000	38
111.3430000000	42
111.3730000000	49
111.4030000000	37
111.4330000000	46
111.4630000000	49
111.4930000000	46
111.5230000000	35
111.5530000000	41
111.5830000000	36
111.6130000000	40
111.6430000000	42
111.6730000000	36
111.7030000000	47
111.7330000000	43
111.7630000000	50
111.7930000000	48
111.8230000000	32
111.8530000000	48
111.8830000000	32
111.9130000000	34
111.9430000000	38
111.9730000000	37
112.0030000000	39
112.0330000000	29
112.0630000000	37
112.0930000000	29
112.1230000000	41
112.1530000000	35
112.1830000000	43
112.2130000000	53
112.2430000000	35
112.2730000000	39
112.3030000000	42
112.3330000000	35
112.3630000000	39
112.3930000000	35
112.4230000000	32
112.4530000000	47
112.4830000000	48
112.5130000000	27
112.5430000000	47
112.5730000000	29
112.6030000000	30
112.6330000000	35
112.6630000000	44
112.6930000000	44
112.7230000000	36
112.7530000000	46
112.7830000000	56
112.8130000000	44
112.8430000000	40
112.8730000000	42
112.9030000000	36
112.9330000000	47
112.9630000000	49
112.9930000000	41
113.0230000000	41
113.0530000000	41
113.0830000000	38
113.1130000000	32
113.1430000000	45
113.1730000000	37
113.2030000000	28
113.2330000000	34
113.2630000000	21
113.2930000000	32
113.3230000000	49
113.3530000000	48
113.3830000000	47
113.4130000000	36
113.4430000000	29
113.4730000000	51
113.5030000000	43
113.5330000000	38
113.5630000000	36
113.5930000000	37
113.6230000000	45
113.6530000000	40
113.6830000000	40
113.7130000000	37
113.7430000000	32
113.7730000000	44
113.8030000000	42
113.8330000000	40
113.8630000000	38
113.8930000000	35
113.9230000000	37
113.9530000000	41
113.9830000000	38
114.0130000000	47
114.0430000000	40
114.0730000000	47
114.1030000000	32
114.1330000000	34
114.1630000000	35
114.1930000000	35
114.2230000000	43
114.2530000000	44
114.2830000000	46
114.3130000000	50
114.3430000000	32
114.3730000000	47
114.4030000000	37
114.4330000000	48
114.4630000000	1
114.4930000000	1
114.5230000000	1
114.5530000000	1
114.5830000000	1
