0.3130000000	1
0.3430000000	1
0.3730000000	1
0.4030000000	1
0.4330000000	1
0.4630000000	1
0.4930000000	1
0.5230000000	2
0.5530000000	1
0.5830000000	1
0.6130000000	2
0.6430000000	2
0.6730000000	1
0.7030000000	3
0.7330000000	1
0.7630000000	2
0.7930000000	1
0.8230000000	1
0.8530000000	1
0.8830000000	2
0.9130000000	1
0.9430000000	1
0.9730000000	1
1.0030000000	1
1.0330000000	1
1.0630000000	1
1.0930000000	2
1.1230000000	1
1.1530000000	1
1.1830000000	1
1.2130000000	1
1.2430000000	1
1.2730000000	2
1.3030000000	1
1.3330000000	1
1.3630000000	1
1.3930000000	1
1.4230000000	1
1.4530000000	1
1.4830000000	1
1.5130000000	1
1.5430000000	1
1.5730000000	1
1.6030000000	1
1.6330000000	1
1.6630000000	1
1.6930000000	2
1.7230000000	1
1.7530000000	2
1.7830000000	1
1.8130000000	2
1.8430000000	2
1.8730000000	1
1.9030000000	1
1.9330000000	2
1.9630000000	1
1.9930000000	1
2.0230000000	1
2.0530000000	1
2.0830000000	1
2.1130000000	2
2.1430000000	1
2.1730000000	2
2.2030000000	3
2.2330000000	1
2.2630000000	1
2.2930000000	1
2.3230000000	2
2.3530000000	2
2.3830000000	1
2.4130000000	1
2.4430000000	2
2.4730000000	2
2.5030000000	1
2.5330000000	1
2.5630000000	2
2.5930000000	2
2.6230000000	1
2.6530000000	1
2.6830000000	2
2.7130000000	1
2.7430000000	2
2.7730000000	2
2.8030000000	1
2.8330000000	2
2.8630000000	1
2.8930000000	2
2.9230000000	2
2.9530000000	3
2.9830000000	1
3.0130000000	2
3.0430000000	3
3.0730000000	1
3.1030000000	2
3.1330000000	3
3.1630000000	1
3.1930000000	2
3.2230000000	2
3.2530000000	2
3.2830000000	2
3.3130000000	1
3.3430000000	3
3.3730000000	3
3.4030000000	2
3.4330000000	1
3.4630000000	2
3.4930000000	3
3.5230000000	3
3.5530000000	4
3.5830000000	2
3.6130000000	2
3.6430000000	3
3.6730000000	3
3.7030000000	3
3.7330000000	1
3.7630000000	1
3.7930000000	1
3.8230000000	1
3.8530000000	2
3.8830000000	3
3.9130000000	2
3.9430000000	3
3.9730000000	5
4.0030000000	4
4.0330000000	2
4.0630000000	3
4.0930000000	4
4.1230000000	2
4.1530000000	3
4.1830000000	4
4.2130000000	3
4.2430000000	5
4.2730000000	3
4.3030000000	2
4.3330000000	4
4.3630000000	4
4.3930000000	6
4.4230000000	5
4.4530000000	9
4.4830000000	8
4.5130000000	23
4.5430000000	26
4.5730000000	62
4.6030000000	58
4.6330000000	96
4.6630000000	103
4.6930000000	105
4.7230000000	120
4.7530000000	114
4.7830000000	136
4.8130000000	144
4.8430000000	134
4.8730000000	142
4.9030000000	143
4.9330000000	131
4.9630000000	119
4.9930000000	162
5.0230000000	150
5.0530000000	135
5.0830000000	140
5.1130000000	123
5.1430000000	133
5.1730000000	124
5.2030000000	149
5.2330000000	147
5.2630000000	154
5.2930000000	153
5.3230000000	150
5.3530000000	132
5.3830000000	140
5.4130000000	143
5.4430000000	141
5.4730000000	143
5.5030000000	138
5.5330000000	138
5.5630000000	148
5.5930000000	136
5.6230000000	131
5.6530000000	124
5.6830000000	140
5.7130000000	145
5.7430000000	144
5.7730000000	160
5.8030000000	151
5.8330000000	154
5.8630000000	136
5.8930000000	159
5.9230000000	151
5.9530000000	139
5.9830000000	131
6.0130000000	146
6.0430000000	153
6.0730000000	152
6.1030000000	156
6.1330000000	153
6.1630000000	160
6.1930000000	168
6.2230000000	153
6.2530000000	146
6.2830000000	133
6.3130000000	144
6.3430000000	142
6.3730000000	143
6.4030000000	148
6.4330000000	148
6.4630000000	136
6.4930000000	141
6.5230000000	171
6.5530000000	141
6.5830000000	166
6.6130000000	155
6.6430000000	129
6.6730000000	128
6.7030000000	140
6.7330000000	124
6.7630000000	125
6.7930000000	144
6.8230000000	162
6.8530000000	160
6.8830000000	144
6.9130000000	149
6.9430000000	150
6.9730000000	134
7.0030000000	134
7.0330000000	134
7.0630000000	163
7.0930000000	151
7.1230000000	129
7.1530000000	143
7.1830000000	144
7.2130000000	150
7.2430000000	140
7.2730000000	146
7.3030000000	148
7.3330000000	125
7.3630000000	134
7.3930000000	148
7.4230000000	137
7.4530000000	140
7.4830000000	150
7.5130000000	151
7.5430000000	135
7.5730000000	130
7.6030000000	155
7.6330000000	158
7.6630000000	156
7.6930000000	133
7.7230000000	131
7.7530000000	149
7.7830000000	148
7.8130000000	157
7.8430000000	135
7.8730000000	133
7.9030000000	160
7.9330000000	146
7.9630000000	163
7.9930000000	191
8.0230000000	150
8.0530000000	146
8.0830000000	154
8.1130000000	135
8.1430000000	152
8.1730000000	153
8.2030000000	145
8.2330000000	152
8.2630000000	138
8.2930000000	136
8.3230000000	148
8.3530000000	141
8.3830000000	145
8.4130000000	142
8.4430000000	116
8.4730000000	136
8.5030000000	146
8.5330000000	124
8.5630000000	156
8.5930000000	137
8.6230000000	143
8.6530000000	136
8.6830000000	155
8.7130000000	148
8.7430000000	168
8.7730000000	154
8.8030000000	154
8.8330000000	153
8.8630000000	153
8.8930000000	151
8.9230000000	142
8.9530000000	138
8.9830000000	159
9.0130000000	132
9.0430000000	154
9.0730000000	142
9.1030000000	143
9.1330000000	136
9.1630000000	124
9.1930000000	144
9.2230000000	144
9.2530000000	151
9.2830000000	147
9.3130000000	161
9.3430000000	142
9.3730000000	159
9.4030000000	155
9.4330000000	148
9.4630000000	138
9.4930000000	142
9.5230000000	170
9.5530000000	146
9.5830000000	148
9.6130000000	143
9.6430000000	133
9.6730000000	182
9.7030000000	155
9.7330000000	156
9.7630000000	167
9.7930000000	125
9.8230000000	147
9.8530000000	149
9.8830000000	139
9.9130000000	150
9.9430000000	136
9.9730000000	145
10.0030000000	144
10.0330000000	142
10.0630000000	149
10.0930000000	143
10.1230000000	170
10.1530000000	147
10.1830000000	177
10.2130000000	151
10.2430000000	147
10.2730000000	125
10.3030000000	165
10.3330000000	148
10.3630000000	160
10.3930000000	114
10.4230000000	138
10.4530000000	140
10.4830000000	131
10.5130000000	123
10.5430000000	146
10.5730000000	143
10.6030000000	150
10.6330000000	133
10.6630000000	174
10.6930000000	135
10.7230000000	134
10.7530000000	157
10.7830000000	140
10.8130000000	138
10.8430000000	157
10.8730000000	151
10.9030000000	128
10.9330000000	145
10.9630000000	148
10.9930000000	111
11.0230000000	150
11.0530000000	147
11.0830000000	151
11.1130000000	146
11.1430000000	144
11.1730000000	148
11.2030000000	170
11.2330000000	172
11.2630000000	155
11.2930000000	140
11.3230000000	134
11.3530000000	110
11.3830000000	148
11.4130000000	132
11.4430000000	137
11.4730000000	143
11.5030000000	159
11.5330000000	142
11.5630000000	148
11.5930000000	150
11.6230000000	155
11.6530000000	158
11.6830000000	137
11.7130000000	157
11.7430000000	150
11.7730000000	135
11.8030000000	140
11.8330000000	135
11.8630000000	140
11.8930000000	140
11.9230000000	155
11.9530000000	172
11.9830000000	142
12.0130000000	167
12.0430000000	145
12.0730000000	154
12.1030000000	145
12.1330000000	150
12.1630000000	146
12.1930000000	147
12.2230000000	145
12.2530000000	149
12.2830000000	141
12.3130000000	164
12.3430000000	137
12.3730000000	133
12.4030000000	151
12.4330000000	141
12.4630000000	144
12.4930000000	152
12.5230000000	154
12.5530000000	138
12.5830000000	138
12.6130000000	144
12.6430000000	155
12.6730000000	147
12.7030000000	149
12.7330000000	154
12.7630000000	148
12.7930000000	141
12.8230000000	127
12.8530000000	128
12.8830000000	131
12.9130000000	126
12.9430000000	131
12.9730000000	131
13.0030000000	137
13.0330000000	148
13.0630000000	145
13.0930000000	157
13.1230000000	153
13.1530000000	116
13.1830000000	143
13.2130000000	140
13.2430000000	151
13.2730000000	134
13.3030000000	145
13.3330000000	156
13.3630000000	171
13.3930000000	150
13.4230000000	123
13.4530000000	146
13.4830000000	152
13.5130000000	150
13.5430000000	155
13.5730000000	134
13.6030000000	141
13.6330000000	156
13.6630000000	138
13.6930000000	136
13.7230000000	153
13.7530000000	149
13.7830000000	153
13.8130000000	125
13.8430000000	131
13.8730000000	153
13.9030000000	128
13.9330000000	129
13.9630000000	148
13.9930000000	142
14.0230000000	143
14.0530000000	135
14.0830000000	155
14.1130000000	149
14.1430000000	139
14.1730000000	123
14.2030000000	138
14.2330000000	154
14.2630000000	133
14.2930000000	153
14.3230000000	129
14.3530000000	120
14.3830000000	131
14.4130000000	140
14.4430000000	132
14.4730000000	162
14.5030000000	141
14.5330000000	122
14.5630000000	137
14.5930000000	127
14.6230000000	161
14.6530000000	164
14.6830000000	154
14.7130000000	146
14.7430000000	137
14.7730000000	141
14.8030000000	113
14.8330000000	149
14.8630000000	137
14.8930000000	161
14.9230000000	156
14.9530000000	161
14.9830000000	164
15.0130000000	154
15.0430000000	159
15.0730000000	134
15.1030000000	154
15.1330000000	160
15.1630000000	156
15.1930000000	150
15.2230000000	153
15.2530000000	170
15.2830000000	172
15.3130000000	159
15.3430000000	160
15.3730000000	146
15.4030000000	142
15.4330000000	168
15.4630000000	132
15.4930000000	159
15.5230000000	154
15.5530000000	142
15.5830000000	151
15.6130000000	150
15.6430000000	139
15.6730000000	140
15.7030000000	141
15.7330000000	144
15.7630000000	131
15.7930000000	153
15.8230000000	118
15.8530000000	152
15.8830000000	150
15.9130000000	153
15.9430000000	157
15.9730000000	144
16.0030000000	168
16.0330000000	158
16.0630000000	134
16.0930000000	114
16.1230000000	139
16.1530000000	144
16.1830000000	143
16.2130000000	149
16.2430000000	120
16.2730000000	155
16.3030000000	161
16.3330000000	137
16.3630000000	151
16.3930000000	154
16.4230000000	139
16.4530000000	144
16.4830000000	156
16.5130000000	140
16.5430000000	145
16.5730000000	157
16.6030000000	163
16.6330000000	151
16.6630000000	149
16.6930000000	165
16.7230000000	135
16.7530000000	149
16.7830000000	132
16.8130000000	159
16.8430000000	148
16.8730000000	143
16.9030000000	122
16.9330000000	158
16.9630000000	162
16.9930000000	140
17.0230000000	159
17.0530000000	148
17.0830000000	138
17.1130000000	129
17.1430000000	142
17.1730000000	171
17.2030000000	154
17.2330000000	131
17.2630000000	142
17.2930000000	140
17.3230000000	158
17.3530000000	159
17.3830000000	152
17.4130000000	143
17.4430000000	152
17.4730000000	162
17.5030000000	148
17.5330000000	158
17.5630000000	143
17.5930000000	156
17.6230000000	186
17.6530000000	167
17.6830000000	146
17.7130000000	144
17.7430000000	149
17.7730000000	144
17.8030000000	159
17.8330000000	150
17.8630000000	133
17.8930000000	140
17.9230000000	162
17.9530000000	166
17.9830000000	149
18.0130000000	145
18.0430000000	140
18.0730000000	147
18.1030000000	149
18.1330000000	157
18.1630000000	114
18.1930000000	131
18.2230000000	119
18.2530000000	150
18.2830000000	155
18.3130000000	154
18.3430000000	143
18.3730000000	139
18.4030000000	158
18.4330000000	155
18.4630000000	127
18.4930000000	130
18.5230000000	155
18.5530000000	121
18.5830000000	126
18.6130000000	152
18.6430000000	159
18.6730000000	149
18.7030000000	152
18.7330000000	168
18.7630000000	153
18.7930000000	145
18.8230000000	143
18.8530000000	173
18.8830000000	160
18.9130000000	178
18.9430000000	150
18.9730000000	150
19.0030000000	170
19.0330000000	157
19.0630000000	138
19.0930000000	162
19.1230000000	170
19.1530000000	161
19.1830000000	139
19.2130000000	173
19.2430000000	145
19.2730000000	166
19.3030000000	167
19.3330000000	160
19.3630000000	134
19.3930000000	142
19.4230000000	161
19.4530000000	149
19.4830000000	146
19.5130000000	152
19.5430000000	150
19.5730000000	165
19.6030000000	151
19.6330000000	131
19.6630000000	160
19.6930000000	140
19.7230000000	157
19.7530000000	133
19.7830000000	160
19.8130000000	143
19.8430000000	144
19.8730000000	126
19.9030000000	150
19.9330000000	168
19.9630000000	131
19.9930000000	149
20.0230000000	172
20.0530000000	153
20.0830000000	170
20.1130000000	189
20.1430000000	139
20.1730000000	173
20.2030000000	156
20.2330000000	165
20.2630000000	129
20.2930000000	128
20.3230000000	144
20.3530000000	149
20.3830000000	140
20.4130000000	179
20.4430000000	164
20.4730000000	177
20.5030000000	162
20.5330000000	191
20.5630000000	189
20.5930000000	193
20.6230000000	208
20.6530000000	239
20.6830000000	327
20.7130000000	551
20.7430000000	889
20.7730000000	1359
20.8030000000	2034
20.8330000000	3113
20.8630000000	5376
20.8930000000	7846
20.9230000000	8550
20.9530000000	6379
20.9830000000	3747
21.0130000000	2225
21.0430000000	1347
21.0730000000	810
21.1030000000	511
21.1330000000	306
21.1630000000	200
21.1930000000	197
21.2230000000	180
21.2530000000	199
21.2830000000	179
21.3130000000	175
21.3430000000	172
21.3730000000	153
21.4030000000	147
21.4330000000	143
21.4630000000	161
21.4930000000	184
21.5230000000	150
21.5530000000	164
21.5830000000	156
21.6130000000	126
21.6430000000	161
21.6730000000	144
21.7030000000	141
21.7330000000	147
21.7630000000	159
21.7930000000	159
21.8230000000	158
21.8530000000	139
21.8830000000	170
21.9130000000	173
21.9430000000	165
21.9730000000	148
22.0030000000	167
22.0330000000	154
22.0630000000	163
22.0930000000	167
22.1230000000	159
22.1530000000	161
22.1830000000	160
22.2130000000	177
22.2430000000	169
22.2730000000	158
22.3030000000	161
22.3330000000	146
22.3630000000	148
22.3930000000	167
22.4230000000	168
22.4530000000	154
22.4830000000	165
22.5130000000	167
22.5430000000	159
22.5730000000	161
22.6030000000	169
22.6330000000	161
22.6630000000	161
22.6930000000	173
22.7230000000	145
22.7530000000	167
22.7830000000	186
22.8130000000	172
22.8430000000	155
22.8730000000	170
22.9030000000	159
22.9330000000	161
22.9630000000	184
22.9930000000	177
23.0230000000	168
23.0530000000	185
23.0830000000	155
23.1130000000	164
23.1430000000	189
23.1730000000	174
23.2030000000	155
23.2330000000	151
23.2630000000	182
23.2930000000	176
23.3230000000	158
23.3530000000	164
23.3830000000	163
23.4130000000	180
23.4430000000	190
23.4730000000	139
23.5030000000	161
23.5330000000	179
23.5630000000	204
23.5930000000	178
23.6230000000	163
23.6530000000	179
23.6830000000	167
23.7130000000	189
23.7430000000	178
23.7730000000	173
23.8030000000	155
23.8330000000	171
23.8630000000	164
23.8930000000	175
23.9230000000	182
23.9530000000	165
23.9830000000	164
24.0130000000	191
24.0430000000	167
24.0730000000	164
24.1030000000	187
24.1330000000	163
24.1630000000	171
24.1930000000	178
24.2230000000	169
24.2530000000	167
24.2830000000	199
24.3130000000	176
24.3430000000	164
24.3730000000	178
24.4030000000	156
24.4330000000	191
24.4630000000	162
24.4930000000	165
24.5230000000	168
24.5530000000	142
24.5830000000	190
24.6130000000	165
24.6430000000	156
24.6730000000	170
24.7030000000	152
24.7330000000	162
24.7630000000	153
24.7930000000	172
24.8230000000	145
24.8530000000	142
24.8830000000	162
24.9130000000	200
24.9430000000	146
24.9730000000	161
25.0030000000	174
25.0330000000	193
25.0630000000	173
25.0930000000	151
25.1230000000	173
25.1530000000	166
25.1830000000	187
25.2130000000	196
25.2430000000	171
25.2730000000	151
25.3030000000	153
25.3330000000	158
25.3630000000	172
25.3930000000	156
25.4230000000	202
25.4530000000	187
25.4830000000	188
25.5130000000	208
25.5430000000	219
25.5730000000	222
25.6030000000	225
25.6330000000	254
25.6630000000	245
25.6930000000	196
25.7230000000	157
25.7530000000	171
25.7830000000	182
25.8130000000	175
25.8430000000	170
25.8730000000	146
25.9030000000	158
25.9330000000	163
25.9630000000	155
25.9930000000	159
26.0230000000	144
26.0530000000	179
26.0830000000	156
26.1130000000	155
26.1430000000	157
26.1730000000	187
26.2030000000	165
26.2330000000	149
26.2630000000	150
26.2930000000	151
26.3230000000	146
26.3530000000	170
26.3830000000	171
26.4130000000	150
26.4430000000	156
26.4730000000	145
26.5030000000	159
26.5330000000	174
26.5630000000	152
26.5930000000	131
26.6230000000	161
26.6530000000	164
26.6830000000	156
26.7130000000	167
26.7430000000	170
26.7730000000	155
26.8030000000	148
26.8330000000	142
26.8630000000	143
26.8930000000	155
26.9230000000	155
26.9530000000	156
26.9830000000	169
27.0130000000	174
27.0430000000	162
27.0730000000	140
27.1030000000	145
27.1330000000	160
27.1630000000	158
27.1930000000	157
27.2230000000	153
27.2530000000	172
27.2830000000	180
27.3130000000	161
27.3430000000	156
27.3730000000	149
27.4030000000	136
27.4330000000	155
27.4630000000	166
27.4930000000	154
27.5230000000	145
27.5530000000	157
27.5830000000	141
27.6130000000	154
27.6430000000	180
27.6730000000	134
27.7030000000	149
27.7330000000	153
27.7630000000	151
27.7930000000	156
27.8230000000	161
27.8530000000	148
27.8830000000	144
27.9130000000	144
27.9430000000	160
27.9730000000	152
28.0030000000	135
28.0330000000	160
28.0630000000	152
28.0930000000	127
28.1230000000	164
28.1530000000	162
28.1830000000	156
28.2130000000	171
28.2430000000	155
28.2730000000	158
28.3030000000	136
28.3330000000	133
28.3630000000	146
28.3930000000	157
28.4230000000	145
28.4530000000	169
28.4830000000	163
28.5130000000	134
28.5430000000	128
28.5730000000	156
28.6030000000	160
28.6330000000	155
28.6630000000	148
28.6930000000	149
28.7230000000	139
28.7530000000	154
28.7830000000	171
28.8130000000	137
28.8430000000	122
28.8730000000	158
28.9030000000	156
28.9330000000	139
28.9630000000	152
28.9930000000	143
29.0230000000	146
29.0530000000	136
29.0830000000	138
29.1130000000	137
29.1430000000	138
29.1730000000	141
29.2030000000	120
29.2330000000	129
29.2630000000	132
29.2930000000	136
29.3230000000	133
29.3530000000	122
29.3830000000	113
29.4130000000	135
29.4430000000	131
29.4730000000	127
29.5030000000	151
29.5330000000	143
29.5630000000	136
29.5930000000	138
29.6230000000	148
29.6530000000	149
29.6830000000	116
29.7130000000	147
29.7430000000	141
29.7730000000	117
29.8030000000	139
29.8330000000	154
29.8630000000	143
29.8930000000	137
29.9230000000	138
29.9530000000	140
29.9830000000	139
30.0130000000	140
30.0430000000	148
30.0730000000	146
30.1030000000	144
30.1330000000	141
30.1630000000	137
30.1930000000	167
30.2230000000	116
30.2530000000	153
30.2830000000	147
30.3130000000	130
30.3430000000	147
30.3730000000	146
30.4030000000	122
30.4330000000	133
30.4630000000	133
30.4930000000	124
30.5230000000	114
30.5530000000	115
30.5830000000	157
30.6130000000	125
30.6430000000	147
30.6730000000	137
30.7030000000	143
30.7330000000	139
30.7630000000	121
30.7930000000	149
30.8230000000	139
30.8530000000	136
30.8830000000	117
30.9130000000	126
30.9430000000	139
30.9730000000	130
31.0030000000	134
31.0330000000	141
31.0630000000	128
31.0930000000	130
31.1230000000	127
31.1530000000	121
31.1830000000	136
31.2130000000	119
31.2430000000	123
31.2730000000	134
31.3030000000	138
31.3330000000	167
31.3630000000	144
31.3930000000	127
31.4230000000	155
31.4530000000	147
31.4830000000	121
31.5130000000	118
31.5430000000	139
31.5730000000	137
31.6030000000	139
31.6330000000	124
31.6630000000	120
31.6930000000	112
31.7230000000	115
31.7530000000	129
31.7830000000	126
31.8130000000	127
31.8430000000	139
31.8730000000	136
31.9030000000	132
31.9330000000	105
31.9630000000	133
31.9930000000	137
32.0230000000	136
32.0530000000	146
32.0830000000	131
32.1130000000	132
32.1430000000	120
32.1730000000	122
32.2030000000	137
32.2330000000	122
32.2630000000	110
32.2930000000	136
32.3230000000	113
32.3530000000	135
32.3830000000	133
32.4130000000	141
32.4430000000	135
32.4730000000	128
32.5030000000	141
32.5330000000	141
32.5630000000	128
32.5930000000	109
32.6230000000	136
32.6530000000	140
32.6830000000	145
32.7130000000	117
32.7430000000	114
32.7730000000	136
32.8030000000	144
32.8330000000	151
32.8630000000	141
32.8930000000	143
32.9230000000	147
32.9530000000	166
32.9830000000	240
33.0130000000	298
33.0430000000	395
33.0730000000	663
33.1030000000	1115
33.1330000000	1779
33.1630000000	2561
33.1930000000	4221
33.2230000000	6444
33.2530000000	8049
33.2830000000	7647
33.3130000000	5559
33.3430000000	3393
33.3730000000	2089
33.4030000000	1334
33.4330000000	781
33.4630000000	477
33.4930000000	300
33.5230000000	248
33.5530000000	206
33.5830000000	164
33.6130000000	158
33.6430000000	166
33.6730000000	160
33.7030000000	136
33.7330000000	136
33.7630000000	156
33.7930000000	137
33.8230000000	123
33.8530000000	130
33.8830000000	128
33.9130000000	109
33.9430000000	120
33.9730000000	123
34.0030000000	123
34.0330000000	108
34.0630000000	112
34.0930000000	122
34.1230000000	131
34.1530000000	122
34.1830000000	124
34.2130000000	120
34.2430000000	109
34.2730000000	114
34.3030000000	97
34.3330000000	103
34.3630000000	137
34.3930000000	126
34.4230000000	118
34.4530000000	110
34.4830000000	111
34.5130000000	122
34.5430000000	106
34.5730000000	112
34.6030000000	106
34.6330000000	116
34.6630000000	113
34.6930000000	102
34.7230000000	107
34.7530000000	109
34.7830000000	103
34.8130000000	123
34.8430000000	120
34.8730000000	120
34.9030000000	113
34.9330000000	109
34.9630000000	101
34.9930000000	123
35.0230000000	112
35.0530000000	95
35.0830000000	121
35.1130000000	102
35.1430000000	126
35.1730000000	110
35.2030000000	108
35.2330000000	113
35.2630000000	123
35.2930000000	121
35.3230000000	107
35.3530000000	107
35.3830000000	101
35.4130000000	100
35.4430000000	100
35.4730000000	97
35.5030000000	103
35.5330000000	104
35.5630000000	97
35.5930000000	108
35.6230000000	110
35.6530000000	115
35.6830000000	115
35.7130000000	99
35.7430000000	107
35.7730000000	114
35.8030000000	111
35.8330000000	105
35.8630000000	111
35.8930000000	87
35.9230000000	93
35.9530000000	110
35.9830000000	99
36.0130000000	103
36.0430000000	96
36.0730000000	112
36.1030000000	117
36.1330000000	110
36.1630000000	82
36.1930000000	102
36.2230000000	115
36.2530000000	108
36.2830000000	115
36.3130000000	122
36.3430000000	144
36.3730000000	194
36.4030000000	221
36.4330000000	257
36.4630000000	270
36.4930000000	257
36.5230000000	216
36.5530000000	181
36.5830000000	160
36.6130000000	128
36.6430000000	116
36.6730000000	101
36.7030000000	109
36.7330000000	88
36.7630000000	90
36.7930000000	105
36.8230000000	102
36.8530000000	104
36.8830000000	117
36.9130000000	106
36.9430000000	106
36.9730000000	90
37.0030000000	88
37.0330000000	84
37.0630000000	87
37.0930000000	92
37.1230000000	104
37.1530000000	94
37.1830000000	96
37.2130000000	100
37.2430000000	97
37.2730000000	90
37.3030000000	106
37.3330000000	87
37.3630000000	91
37.3930000000	106
37.4230000000	93
37.4530000000	91
37.4830000000	99
37.5130000000	114
37.5430000000	102
37.5730000000	86
37.6030000000	100
37.6330000000	103
37.6630000000	99
37.6930000000	89
37.7230000000	101
37.7530000000	106
37.7830000000	80
37.8130000000	87
37.8430000000	92
37.8730000000	93
37.9030000000	96
37.9330000000	86
37.9630000000	87
37.9930000000	77
38.0230000000	94
38.0530000000	100
38.0830000000	82
38.1130000000	91
38.1430000000	86
38.1730000000	93
38.2030000000	97
38.2330000000	102
38.2630000000	105
38.2930000000	106
38.3230000000	101
38.3530000000	86
38.3830000000	108
38.4130000000	105
38.4430000000	84
38.4730000000	84
38.5030000000	88
38.5330000000	79
38.5630000000	88
38.5930000000	93
38.6230000000	89
38.6530000000	83
38.6830000000	96
38.7130000000	91
38.7430000000	79
38.7730000000	88
38.8030000000	87
38.8330000000	100
38.8630000000	93
38.8930000000	79
38.9230000000	91
38.9530000000	92
38.9830000000	97
39.0130000000	103
39.0430000000	94
39.0730000000	86
39.1030000000	96
39.1330000000	102
39.1630000000	109
39.1930000000	98
39.2230000000	117
39.2530000000	77
39.2830000000	103
39.3130000000	91
39.3430000000	97
39.3730000000	82
39.4030000000	83
39.4330000000	94
39.4630000000	84
39.4930000000	95
39.5230000000	81
39.5530000000	85
39.5830000000	88
39.6130000000	89
39.6430000000	84
39.6730000000	101
39.7030000000	86
39.7330000000	89
39.7630000000	104
39.7930000000	95
39.8230000000	82
39.8530000000	83
39.8830000000	85
39.9130000000	97
39.9430000000	90
39.9730000000	99
40.0030000000	88
40.0330000000	86
40.0630000000	88
40.0930000000	86
40.1230000000	98
40.1530000000	89
40.1830000000	100
40.2130000000	101
40.2430000000	90
40.2730000000	84
40.3030000000	99
40.3330000000	91
40.3630000000	93
40.3930000000	73
40.4230000000	87
40.4530000000	102
40.4830000000	92
40.5130000000	89
40.5430000000	98
40.5730000000	110
40.6030000000	90
40.6330000000	95
40.6630000000	103
40.6930000000	89
40.7230000000	113
40.7530000000	95
40.7830000000	119
40.8130000000	124
40.8430000000	157
40.8730000000	180
40.9030000000	263
40.9330000000	313
40.9630000000	392
40.9930000000	464
41.0230000000	490
41.0530000000	423
41.0830000000	315
41.1130000000	220
41.1430000000	169
41.1730000000	139
41.2030000000	133
41.2330000000	113
41.2630000000	104
41.2930000000	95
41.3230000000	84
41.3530000000	106
41.3830000000	109
41.4130000000	94
41.4430000000	95
41.4730000000	101
41.5030000000	94
41.5330000000	97
41.5630000000	96
41.5930000000	95
41.6230000000	112
41.6530000000	90
41.6830000000	100
41.7130000000	104
41.7430000000	108
41.7730000000	107
41.8030000000	97
41.8330000000	89
41.8630000000	100
41.8930000000	102
41.9230000000	100
41.9530000000	89
41.9830000000	98
42.0130000000	98
42.0430000000	92
42.0730000000	106
42.1030000000	91
42.1330000000	87
42.1630000000	107
42.1930000000	114
42.2230000000	114
42.2530000000	134
42.2830000000	151
42.3130000000	182
42.3430000000	211
42.3730000000	245
42.4030000000	295
42.4330000000	312
42.4630000000	315
42.4930000000	284
42.5230000000	286
42.5530000000	300
42.5830000000	261
42.6130000000	218
42.6430000000	167
42.6730000000	137
42.7030000000	123
42.7330000000	105
42.7630000000	108
42.7930000000	110
42.8230000000	84
42.8530000000	105
42.8830000000	129
42.9130000000	97
42.9430000000	100
42.9730000000	102
43.0030000000	93
43.0330000000	85
43.0630000000	95
43.0930000000	122
43.1230000000	98
43.1530000000	94
43.1830000000	99
43.2130000000	107
43.2430000000	102
43.2730000000	86
43.3030000000	107
43.3330000000	90
43.3630000000	96
43.3930000000	112
43.4230000000	98
43.4530000000	91
43.4830000000	111
43.5130000000	93
43.5430000000	83
43.5730000000	107
43.6030000000	91
43.6330000000	96
43.6630000000	75
43.6930000000	89
43.7230000000	97
43.7530000000	73
43.7830000000	88
43.8130000000	106
43.8430000000	87
43.8730000000	80
43.9030000000	75
43.9330000000	90
43.9630000000	105
43.9930000000	87
44.0230000000	76
44.0530000000	87
44.0830000000	91
44.1130000000	98
44.1430000000	77
44.1730000000	88
44.2030000000	100
44.2330000000	78
44.2630000000	75
44.2930000000	72
44.3230000000	91
44.3530000000	75
44.3830000000	77
44.4130000000	104
44.4430000000	88
44.4730000000	84
44.5030000000	94
44.5330000000	90
44.5630000000	86
44.5930000000	98
44.6230000000	85
44.6530000000	94
44.6830000000	92
44.7130000000	74
44.7430000000	77
44.7730000000	80
44.8030000000	89
44.8330000000	86
44.8630000000	82
44.8930000000	81
44.9230000000	80
44.9530000000	100
44.9830000000	90
45.0130000000	102
45.0430000000	71
45.0730000000	88
45.1030000000	84
45.1330000000	74
45.1630000000	95
45.1930000000	69
45.2230000000	93
45.2530000000	85
45.2830000000	85
45.3130000000	88
45.3430000000	90
45.3730000000	86
45.4030000000	95
45.4330000000	89
45.4630000000	80
45.4930000000	76
45.5230000000	81
45.5530000000	85
45.5830000000	81
45.6130000000	72
45.6430000000	72
45.6730000000	84
45.7030000000	90
45.7330000000	87
45.7630000000	86
45.7930000000	83
45.8230000000	70
45.8530000000	82
45.8830000000	78
45.9130000000	77
45.9430000000	79
45.9730000000	91
46.0030000000	84
46.0330000000	76
46.0630000000	102
46.0930000000	88
46.1230000000	93
46.1530000000	92
46.1830000000	84
46.2130000000	88
46.2430000000	71
46.2730000000	90
46.3030000000	85
46.3330000000	105
46.3630000000	110
46.3930000000	95
46.4230000000	112
46.4530000000	119
46.4830000000	126
46.5130000000	100
46.5430000000	97
46.5730000000	103
46.6030000000	92
46.6330000000	108
46.6630000000	65
46.6930000000	83
46.7230000000	70
46.7530000000	71
46.7830000000	71
46.8130000000	87
46.8430000000	70
46.8730000000	73
46.9030000000	77
46.9330000000	76
46.9630000000	67
46.9930000000	82
47.0230000000	58
47.0530000000	71
47.0830000000	77
47.1130000000	85
47.1430000000	75
47.1730000000	83
47.2030000000	79
47.2330000000	71
47.2630000000	94
47.2930000000	62
47.3230000000	84
47.3530000000	63
47.3830000000	78
47.4130000000	59
47.4430000000	71
47.4730000000	63
47.5030000000	55
47.5330000000	77
47.5630000000	63
47.5930000000	65
47.6230000000	98
47.6530000000	59
47.6830000000	83
47.7130000000	73
47.7430000000	84
47.7730000000	75
47.8030000000	64
47.8330000000	56
47.8630000000	65
47.8930000000	66
47.9230000000	80
47.9530000000	72
47.9830000000	60
48.0130000000	65
48.0430000000	64
48.0730000000	60
48.1030000000	66
48.1330000000	63
48.1630000000	81
48.1930000000	74
48.2230000000	73
48.2530000000	74
48.2830000000	64
48.3130000000	77
48.3430000000	75
48.3730000000	63
48.4030000000	70
48.4330000000	64
48.4630000000	64
48.4930000000	90
48.5230000000	68
48.5530000000	73
48.5830000000	74
48.6130000000	67
48.6430000000	72
48.6730000000	61
48.7030000000	52
48.7330000000	74
48.7630000000	66
48.7930000000	65
48.8230000000	74
48.8530000000	71
48.8830000000	56
48.9130000000	71
48.9430000000	82
48.9730000000	63
49.0030000000	63
49.0330000000	70
49.0630000000	59
49.0930000000	72
49.1230000000	62
49.1530000000	80
49.1830000000	68
49.2130000000	63
49.2430000000	53
49.2730000000	68
49.3030000000	62
49.3330000000	51
49.3630000000	60
49.3930000000	66
49.4230000000	74
49.4530000000	66
49.4830000000	70
49.5130000000	65
49.5430000000	76
49.5730000000	63
49.6030000000	57
49.6330000000	81
49.6630000000	60
49.6930000000	55
49.7230000000	72
49.7530000000	68
49.7830000000	59
49.8130000000	57
49.8430000000	62
49.8730000000	61
49.9030000000	75
49.9330000000	54
49.9630000000	61
49.9930000000	81
50.0230000000	57
50.0530000000	66
50.0830000000	58
50.1130000000	57
50.1430000000	81
50.1730000000	59
50.2030000000	82
50.2330000000	80
50.2630000000	79
50.2930000000	86
50.3230000000	92
50.3530000000	87
50.3830000000	92
50.4130000000	83
50.4430000000	83
50.4730000000	70
50.5030000000	57
50.5330000000	59
50.5630000000	71
50.5930000000	66
50.6230000000	55
50.6530000000	48
50.6830000000	56
50.7130000000	65
50.7430000000	66
50.7730000000	67
50.8030000000	58
50.8330000000	54
50.8630000000	66
50.8930000000	66
50.9230000000	61
50.9530000000	63
50.9830000000	57
51.0130000000	62
51.0430000000	63
51.0730000000	69
51.1030000000	67
51.1330000000	66
51.1630000000	65
51.1930000000	54
51.2230000000	56
51.2530000000	67
51.2830000000	51
51.3130000000	59
51.3430000000	63
51.3730000000	54
51.4030000000	60
51.4330000000	59
51.4630000000	59
51.4930000000	53
51.5230000000	47
51.5530000000	58
51.5830000000	62
51.6130000000	70
51.6430000000	71
51.6730000000	53
51.7030000000	61
51.7330000000	63
51.7630000000	62
51.7930000000	51
51.8230000000	65
51.8530000000	65
51.8830000000	61
51.9130000000	65
51.9430000000	65
51.9730000000	69
52.0030000000	67
52.0330000000	53
52.0630000000	70
52.0930000000	49
52.1230000000	49
52.1530000000	49
52.1830000000	59
52.2130000000	61
52.2430000000	48
52.2730000000	61
52.3030000000	54
52.3330000000	68
52.3630000000	55
52.3930000000	65
52.4230000000	63
52.4530000000	65
52.4830000000	57
52.5130000000	80
52.5430000000	82
52.5730000000	79
52.6030000000	75
52.6330000000	76
52.6630000000	69
52.6930000000	73
52.7230000000	65
52.7530000000	67
52.7830000000	64
52.8130000000	61
52.8430000000	50
52.8730000000	59
52.9030000000	63
52.9330000000	65
52.9630000000	53
52.9930000000	63
53.0230000000	58
53.0530000000	70
53.0830000000	69
53.1130000000	64
53.1430000000	62
53.1730000000	50
53.2030000000	55
53.2330000000	62
53.2630000000	46
53.2930000000	46
53.3230000000	58
53.3530000000	57
53.3830000000	54
53.4130000000	51
53.4430000000	54
53.4730000000	71
53.5030000000	70
53.5330000000	66
53.5630000000	55
53.5930000000	56
53.6230000000	51
53.6530000000	45
53.6830000000	56
53.7130000000	56
53.7430000000	48
53.7730000000	53
53.8030000000	58
53.8330000000	61
53.8630000000	59
53.8930000000	73
53.9230000000	68
53.9530000000	64
53.9830000000	50
54.0130000000	68
54.0430000000	49
54.0730000000	45
54.1030000000	64
54.1330000000	58
54.1630000000	60
54.1930000000	55
54.2230000000	73
54.2530000000	60
54.2830000000	56
54.3130000000	46
54.3430000000	49
54.3730000000	56
54.4030000000	63
54.4330000000	61
54.4630000000	61
54.4930000000	44
54.5230000000	45
54.5530000000	48
54.5830000000	59
54.6130000000	55
54.6430000000	56
54.6730000000	58
54.7030000000	48
54.7330000000	48
54.7630000000	43
54.7930000000	55
54.8230000000	58
54.8530000000	60
54.8830000000	45
54.9130000000	65
54.9430000000	58
54.9730000000	49
55.0030000000	50
55.0330000000	61
55.0630000000	57
55.0930000000	66
55.1230000000	61
55.1530000000	45
55.1830000000	51
55.2130000000	54
55.2430000000	48
55.2730000000	55
55.3030000000	67
55.3330000000	60
55.3630000000	51
55.3930000000	54
55.4230000000	55
55.4530000000	52
55.4830000000	62
55.5130000000	61
55.5430000000	60
55.5730000000	44
55.6030000000	51
55.6330000000	54
55.6630000000	72
55.6930000000	64
55.7230000000	68
55.7530000000	49
55.7830000000	58
55.8130000000	51
55.8430000000	58
55.8730000000	63
55.9030000000	52
55.9330000000	55
55.9630000000	46
55.9930000000	59
56.0230000000	67
56.0530000000	66
56.0830000000	43
56.1130000000	60
56.1430000000	57
56.1730000000	61
56.2030000000	49
56.2330000000	42
56.2630000000	75
56.2930000000	60
56.3230000000	47
56.3530000000	43
56.3830000000	56
56.4130000000	50
56.4430000000	61
56.4730000000	65
56.5030000000	51
56.5330000000	61
56.5630000000	53
56.5930000000	45
56.6230000000	52
56.6530000000	57
56.6830000000	58
56.7130000000	50
56.7430000000	31
56.7730000000	42
56.8030000000	53
56.8330000000	64
56.8630000000	60
56.8930000000	62
56.9230000000	50
56.9530000000	59
56.9830000000	50
57.0130000000	59
57.0430000000	51
57.0730000000	51
57.1030000000	65
57.1330000000	63
57.1630000000	66
57.1930000000	58
57.2230000000	71
57.2530000000	71
57.2830000000	85
57.3130000000	63
57.3430000000	61
57.3730000000	72
57.4030000000	56
57.4330000000	52
57.4630000000	65
57.4930000000	47
57.5230000000	57
57.5530000000	50
57.5830000000	46
57.6130000000	55
57.6430000000	51
57.6730000000	54
57.7030000000	50
57.7330000000	49
57.7630000000	39
57.7930000000	56
57.8230000000	56
57.8530000000	39
57.8830000000	54
57.9130000000	42
57.9430000000	46
57.9730000000	57
58.0030000000	43
58.0330000000	47
58.0630000000	46
58.0930000000	52
58.1230000000	53
58.1530000000	64
58.1830000000	55
58.2130000000	50
58.2430000000	53
58.2730000000	51
58.3030000000	57
58.3330000000	48
58.3630000000	54
58.3930000000	54
58.4230000000	43
58.4530000000	48
58.4830000000	50
58.5130000000	57
58.5430000000	36
58.5730000000	52
58.6030000000	54
58.6330000000	48
58.6630000000	54
58.6930000000	43
58.7230000000	52
58.7530000000	46
58.7830000000	45
58.8130000000	48
58.8430000000	51
58.8730000000	56
58.9030000000	37
58.9330000000	55
58.9630000000	50
58.9930000000	57
59.0230000000	42
59.0530000000	64
59.0830000000	49
59.1130000000	46
59.1430000000	53
59.1730000000	53
59.2030000000	48
59.2330000000	47
59.2630000000	57
59.2930000000	52
59.3230000000	50
59.3530000000	59
59.3830000000	61
59.4130000000	50
59.4430000000	63
59.4730000000	50
59.5030000000	40
59.5330000000	44
59.5630000000	46
59.5930000000	48
59.6230000000	48
59.6530000000	49
59.6830000000	56
59.7130000000	56
59.7430000000	36
59.7730000000	45
59.8030000000	50
59.8330000000	55
59.8630000000	51
59.8930000000	48
59.9230000000	50
59.9530000000	47
59.9830000000	42
60.0130000000	57
60.0430000000	47
60.0730000000	52
60.1030000000	37
60.1330000000	58
60.1630000000	44
60.1930000000	46
60.2230000000	55
60.2530000000	46
60.2830000000	44
60.3130000000	60
60.3430000000	52
60.3730000000	50
60.4030000000	61
60.4330000000	62
60.4630000000	61
60.4930000000	68
60.5230000000	67
60.5530000000	69
60.5830000000	61
60.6130000000	69
60.6430000000	58
60.6730000000	34
60.7030000000	56
60.7330000000	50
60.7630000000	51
60.7930000000	43
60.8230000000	43
60.8530000000	47
60.8830000000	51
60.9130000000	53
60.9430000000	42
60.9730000000	49
61.0030000000	57
61.0330000000	52
61.0630000000	40
61.0930000000	52
61.1230000000	47
61.1530000000	42
61.1830000000	42
61.2130000000	46
61.2430000000	43
61.2730000000	53
61.3030000000	53
61.3330000000	49
61.3630000000	40
61.3930000000	38
61.4230000000	44
61.4530000000	45
61.4830000000	43
61.5130000000	39
61.5430000000	40
61.5730000000	48
61.6030000000	49
61.6330000000	39
61.6630000000	45
61.6930000000	43
61.7230000000	48
61.7530000000	43
61.7830000000	50
61.8130000000	57
61.8430000000	49
61.8730000000	40
61.9030000000	50
61.9330000000	47
61.9630000000	43
61.9930000000	61
62.0230000000	39
62.0530000000	47
62.0830000000	34
62.1130000000	55
62.1430000000	46
62.1730000000	51
62.2030000000	51
62.2330000000	31
62.2630000000	57
62.2930000000	62
62.3230000000	44
62.3530000000	53
62.3830000000	42
62.4130000000	53
62.4430000000	50
62.4730000000	37
62.5030000000	47
62.5330000000	47
62.5630000000	48
62.5930000000	44
62.6230000000	44
62.6530000000	59
62.6830000000	48
62.7130000000	42
62.7430000000	44
62.7730000000	44
62.8030000000	54
62.8330000000	49
62.8630000000	47
62.8930000000	47
62.9230000000	44
62.9530000000	48
62.9830000000	47
63.0130000000	45
63.0430000000	48
63.0730000000	56
63.1030000000	54
63.1330000000	51
63.1630000000	48
63.1930000000	48
63.2230000000	51
63.2530000000	39
63.2830000000	44
63.3130000000	48
63.3430000000	49
63.3730000000	59
63.4030000000	58
63.4330000000	63
63.4630000000	56
63.4930000000	63
63.5230000000	84
63.5530000000	90
63.5830000000	108
63.6130000000	103
63.6430000000	103
63.6730000000	90
63.7030000000	86
63.7330000000	87
63.7630000000	83
63.7930000000	85
63.8230000000	70
63.8530000000	68
63.8830000000	54
63.9130000000	46
63.9430000000	57
63.9730000000	50
64.0030000000	51
64.0330000000	65
64.0630000000	53
64.0930000000	54
64.1230000000	48
64.1530000000	48
64.1830000000	43
64.2130000000	38
64.2430000000	46
64.2730000000	43
64.3030000000	41
64.3330000000	45
64.3630000000	49
64.3930000000	52
64.4230000000	34
64.4530000000	51
64.4830000000	52
64.5130000000	43
64.5430000000	35
64.5730000000	48
64.6030000000	45
64.6330000000	49
64.6630000000	40
64.6930000000	47
64.7230000000	38
64.7530000000	41
64.7830000000	54
64.8130000000	41
64.8430000000	55
64.8730000000	50
64.9030000000	39
64.9330000000	32
64.9630000000	36
64.9930000000	57
65.0230000000	49
65.0530000000	41
65.0830000000	46
65.1130000000	41
65.1430000000	43
65.1730000000	43
65.2030000000	39
65.2330000000	44
65.2630000000	38
65.2930000000	45
65.3230000000	51
65.3530000000	39
65.3830000000	37
65.4130000000	41
65.4430000000	37
65.4730000000	40
65.5030000000	51
65.5330000000	51
65.5630000000	37
65.5930000000	34
65.6230000000	47
65.6530000000	41
65.6830000000	35
65.7130000000	37
65.7430000000	45
65.7730000000	43
65.8030000000	44
65.8330000000	48
65.8630000000	48
65.8930000000	37
65.9230000000	45
65.9530000000	49
65.9830000000	44
66.0130000000	51
66.0430000000	52
66.0730000000	43
66.1030000000	58
66.1330000000	61
66.1630000000	44
66.1930000000	34
66.2230000000	47
66.2530000000	48
66.2830000000	48
66.3130000000	51
66.3430000000	48
66.3730000000	51
66.4030000000	54
66.4330000000	42
66.4630000000	34
66.4930000000	43
66.5230000000	38
66.5530000000	41
66.5830000000	45
66.6130000000	38
66.6430000000	45
66.6730000000	53
66.7030000000	34
66.7330000000	48
66.7630000000	59
66.7930000000	56
66.8230000000	35
66.8530000000	56
66.8830000000	45
66.9130000000	34
66.9430000000	50
66.9730000000	51
67.0030000000	48
67.0330000000	41
67.0630000000	34
67.0930000000	47
67.1230000000	40
67.1530000000	41
67.1830000000	49
67.2130000000	43
67.2430000000	41
67.2730000000	57
67.3030000000	48
67.3330000000	51
67.3630000000	50
67.3930000000	46
67.4230000000	59
67.4530000000	44
67.4830000000	44
67.5130000000	36
67.5430000000	52
67.5730000000	56
67.6030000000	51
67.6330000000	53
67.6630000000	56
67.6930000000	50
67.7230000000	46
67.7530000000	39
67.7830000000	45
67.8130000000	48
67.8430000000	47
67.8730000000	41
67.9030000000	27
67.9330000000	48
67.9630000000	43
67.9930000000	46
68.0230000000	50
68.0530000000	51
68.0830000000	48
68.1130000000	50
68.1430000000	51
68.1730000000	58
68.2030000000	56
68.2330000000	50
68.2630000000	52
68.2930000000	54
68.3230000000	59
68.3530000000	47
68.3830000000	45
68.4130000000	41
68.4430000000	44
68.4730000000	47
68.5030000000	42
68.5330000000	42
68.5630000000	39
68.5930000000	42
68.6230000000	43
68.6530000000	47
68.6830000000	61
68.7130000000	39
68.7430000000	42
68.7730000000	60
68.8030000000	54
68.8330000000	44
68.8630000000	39
68.8930000000	47
68.9230000000	56
68.9530000000	47
68.9830000000	44
69.0130000000	48
69.0430000000	41
69.0730000000	45
69.1030000000	50
69.1330000000	38
69.1630000000	43
69.1930000000	45
69.2230000000	53
69.2530000000	37
69.2830000000	50
69.3130000000	54
69.3430000000	49
69.3730000000	48
69.4030000000	35
69.4330000000	48
69.4630000000	54
69.4930000000	41
69.5230000000	39
69.5530000000	39
69.5830000000	35
69.6130000000	52
69.6430000000	54
69.6730000000	45
69.7030000000	51
69.7330000000	47
69.7630000000	53
69.7930000000	51
69.8230000000	48
69.8530000000	57
69.8830000000	45
69.9130000000	47
69.9430000000	45
69.9730000000	44
70.0030000000	39
70.0330000000	42
70.0630000000	46
70.0930000000	39
70.1230000000	43
70.1530000000	46
70.1830000000	43
70.2130000000	42
70.2430000000	45
70.2730000000	38
70.3030000000	47
70.3330000000	50
70.3630000000	46
70.3930000000	46
70.4230000000	50
70.4530000000	37
70.4830000000	50
70.5130000000	39
70.5430000000	59
70.5730000000	44
70.6030000000	47
70.6330000000	52
70.6630000000	37
70.6930000000	44
70.7230000000	42
70.7530000000	39
70.7830000000	47
70.8130000000	40
70.8430000000	51
70.8730000000	51
70.9030000000	38
70.9330000000	47
70.9630000000	40
70.9930000000	38
71.0230000000	36
71.0530000000	39
71.0830000000	52
71.1130000000	51
71.1430000000	51
71.1730000000	44
71.2030000000	33
71.2330000000	39
71.2630000000	47
71.2930000000	43
71.3230000000	45
71.3530000000	42
71.3830000000	38
71.4130000000	49
71.4430000000	52
71.4730000000	45
71.5030000000	49
71.5330000000	58
71.5630000000	42
71.5930000000	47
71.6230000000	53
71.6530000000	37
71.6830000000	44
71.7130000000	39
71.7430000000	37
71.7730000000	40
71.8030000000	44
71.8330000000	49
71.8630000000	46
71.8930000000	47
71.9230000000	47
71.9530000000	58
71.9830000000	37
72.0130000000	54
72.0430000000	52
72.0730000000	55
72.1030000000	44
72.1330000000	46
72.1630000000	46
72.1930000000	41
72.2230000000	56
72.2530000000	41
72.2830000000	40
72.3130000000	50
72.3430000000	47
72.3730000000	38
72.4030000000	50
72.4330000000	39
72.4630000000	63
72.4930000000	47
72.5230000000	63
72.5530000000	54
72.5830000000	51
72.6130000000	62
72.6430000000	67
72.6730000000	62
72.7030000000	65
72.7330000000	60
72.7630000000	63
72.7930000000	61
72.8230000000	69
72.8530000000	67
72.8830000000	57
72.9130000000	48
72.9430000000	65
72.9730000000	53
73.0030000000	46
73.0330000000	44
73.0630000000	41
73.0930000000	49
73.1230000000	37
73.1530000000	46
73.1830000000	54
73.2130000000	43
73.2430000000	42
73.2730000000	47
73.3030000000	49
73.3330000000	42
73.3630000000	31
73.3930000000	42
73.4230000000	39
73.4530000000	46
73.4830000000	46
73.5130000000	50
73.5430000000	41
73.5730000000	42
73.6030000000	50
73.6330000000	40
73.6630000000	40
73.6930000000	50
73.7230000000	54
73.7530000000	58
73.7830000000	50
73.8130000000	40
73.8430000000	44
73.8730000000	41
73.9030000000	47
73.9330000000	43
73.9630000000	31
73.9930000000	46
74.0230000000	45
74.0530000000	51
74.0830000000	39
74.1130000000	56
74.1430000000	47
74.1730000000	59
74.2030000000	40
74.2330000000	54
74.2630000000	55
74.2930000000	45
74.3230000000	51
74.3530000000	44
74.3830000000	51
74.4130000000	36
74.4430000000	44
74.4730000000	48
74.5030000000	32
74.5330000000	53
74.5630000000	52
74.5930000000	46
74.6230000000	60
74.6530000000	48
74.6830000000	51
74.7130000000	53
74.7430000000	36
74.7730000000	42
74.8030000000	56
74.8330000000	42
74.8630000000	52
74.8930000000	50
74.9230000000	46
74.9530000000	43
74.9830000000	42
75.0130000000	53
75.0430000000	52
75.0730000000	55
75.1030000000	42
75.1330000000	54
75.1630000000	57
75.1930000000	44
75.2230000000	48
75.2530000000	59
75.2830000000	54
75.3130000000	50
75.3430000000	51
75.3730000000	59
75.4030000000	56
75.4330000000	48
75.4630000000	58
75.4930000000	62
75.5230000000	60
75.5530000000	90
75.5830000000	97
75.6130000000	146
75.6430000000	201
75.6730000000	231
75.7030000000	294
75.7330000000	330
75.7630000000	338
75.7930000000	291
75.8230000000	252
75.8530000000	217
75.8830000000	212
75.9130000000	193
75.9430000000	184
75.9730000000	177
76.0030000000	144
76.0330000000	107
76.0630000000	90
76.0930000000	67
76.1230000000	45
76.1530000000	52
76.1830000000	54
76.2130000000	62
76.2430000000	51
76.2730000000	46
76.3030000000	48
76.3330000000	50
76.3630000000	43
76.3930000000	43
76.4230000000	39
76.4530000000	44
76.4830000000	44
76.5130000000	53
76.5430000000	39
76.5730000000	46
76.6030000000	42
76.6330000000	42
76.6630000000	51
76.6930000000	38
76.7230000000	33
76.7530000000	53
76.7830000000	51
76.8130000000	47
76.8430000000	53
76.8730000000	46
76.9030000000	47
76.9330000000	29
76.9630000000	39
76.9930000000	42
77.0230000000	40
77.0530000000	40
77.0830000000	41
77.1130000000	47
77.1430000000	49
77.1730000000	41
77.2030000000	40
77.2330000000	39
77.2630000000	50
77.2930000000	43
77.3230000000	40
77.3530000000	42
77.3830000000	33
77.4130000000	42
77.4430000000	41
77.4730000000	45
77.5030000000	44
77.5330000000	53
77.5630000000	46
77.5930000000	41
77.6230000000	51
77.6530000000	52
77.6830000000	46
77.7130000000	38
77.7430000000	46
77.7730000000	46
77.8030000000	48
77.8330000000	49
77.8630000000	35
77.8930000000	36
77.9230000000	38
77.9530000000	37
77.9830000000	36
78.0130000000	37
78.0430000000	46
78.0730000000	42
78.1030000000	42
78.1330000000	53
78.1630000000	33
78.1930000000	36
78.2230000000	29
78.2530000000	47
78.2830000000	37
78.3130000000	42
78.3430000000	44
78.3730000000	37
78.4030000000	29
78.4330000000	41
78.4630000000	36
78.4930000000	38
78.5230000000	20
78.5530000000	35
78.5830000000	55
78.6130000000	43
78.6430000000	40
78.6730000000	34
78.7030000000	42
78.7330000000	36
78.7630000000	41
78.7930000000	48
78.8230000000	50
78.8530000000	33
78.8830000000	40
78.9130000000	40
78.9430000000	42
78.9730000000	33
79.0030000000	41
79.0330000000	39
79.0630000000	37
79.0930000000	37
79.1230000000	35
79.1530000000	38
79.1830000000	31
79.2130000000	41
79.2430000000	43
79.2730000000	33
79.3030000000	32
79.3330000000	39
79.3630000000	47
79.3930000000	34
79.4230000000	38
79.4530000000	32
79.4830000000	48
79.5130000000	43
79.5430000000	31
79.5730000000	27
79.6030000000	35
79.6330000000	37
79.6630000000	29
79.6930000000	47
79.7230000000	49
79.7530000000	34
79.7830000000	36
79.8130000000	32
79.8430000000	40
79.8730000000	34
79.9030000000	31
79.9330000000	41
79.9630000000	45
79.9930000000	43
80.0230000000	44
80.0530000000	35
80.0830000000	27
80.1130000000	36
80.1430000000	48
80.1730000000	33
80.2030000000	36
80.2330000000	44
80.2630000000	42
80.2930000000	40
80.3230000000	37
80.3530000000	32
80.3830000000	44
80.4130000000	48
80.4430000000	49
80.4730000000	43
80.5030000000	20
80.5330000000	36
80.5630000000	48
80.5930000000	45
80.6230000000	37
80.6530000000	42
80.6830000000	48
80.7130000000	30
80.7430000000	38
80.7730000000	37
80.8030000000	46
80.8330000000	31
80.8630000000	39
80.8930000000	38
80.9230000000	33
80.9530000000	40
80.9830000000	35
81.0130000000	46
81.0430000000	44
81.0730000000	41
81.1030000000	36
81.1330000000	39
81.1630000000	40
81.1930000000	42
81.2230000000	31
81.2530000000	42
81.2830000000	39
81.3130000000	56
81.3430000000	45
81.3730000000	40
81.4030000000	49
81.4330000000	38
81.4630000000	34
81.4930000000	40
81.5230000000	41
81.5530000000	40
81.5830000000	31
81.6130000000	50
81.6430000000	38
81.6730000000	38
81.7030000000	43
81.7330000000	35
81.7630000000	45
81.7930000000	36
81.8230000000	44
81.8530000000	39
81.8830000000	37
81.9130000000	41
81.9430000000	35
81.9730000000	47
82.0030000000	49
82.0330000000	38
82.0630000000	27
82.0930000000	37
82.1230000000	44
82.1530000000	51
82.1830000000	42
82.2130000000	40
82.2430000000	42
82.2730000000	41
82.3030000000	36
82.3330000000	41
82.3630000000	39
82.3930000000	31
82.4230000000	38
82.4530000000	41
82.4830000000	32
82.5130000000	34
82.5430000000	43
82.5730000000	43
82.6030000000	36
82.6330000000	25
82.6630000000	35
82.6930000000	43
82.7230000000	34
82.7530000000	37
82.7830000000	37
82.8130000000	35
82.8430000000	32
82.8730000000	33
82.9030000000	41
82.9330000000	37
82.9630000000	36
82.9930000000	48
83.0230000000	42
83.0530000000	37
83.0830000000	43
83.1130000000	40
83.1430000000	26
83.1730000000	29
83.2030000000	41
83.2330000000	33
83.2630000000	39
83.2930000000	33
83.3230000000	48
83.3530000000	33
83.3830000000	40
83.4130000000	34
83.4430000000	36
83.4730000000	43
83.5030000000	38
83.5330000000	36
83.5630000000	41
83.5930000000	38
83.6230000000	54
83.6530000000	47
83.6830000000	36
83.7130000000	39
83.7430000000	49
83.7730000000	37
83.8030000000	38
83.8330000000	30
83.8630000000	44
83.8930000000	44
83.9230000000	36
83.9530000000	41
83.9830000000	25
84.0130000000	42
84.0430000000	40
84.0730000000	45
84.1030000000	35
84.1330000000	39
84.1630000000	55
84.1930000000	31
84.2230000000	29
84.2530000000	35
84.2830000000	41
84.3130000000	40
84.3430000000	36
84.3730000000	30
84.4030000000	37
84.4330000000	37
84.4630000000	36
84.4930000000	33
84.5230000000	34
84.5530000000	43
84.5830000000	41
84.6130000000	40
84.6430000000	36
84.6730000000	31
84.7030000000	39
84.7330000000	21
84.7630000000	28
84.7930000000	47
84.8230000000	34
84.8530000000	37
84.8830000000	41
84.9130000000	35
84.9430000000	37
84.9730000000	56
85.0030000000	42
85.0330000000	50
85.0630000000	38
85.0930000000	41
85.1230000000	43
85.1530000000	29
85.1830000000	36
85.2130000000	40
85.2430000000	46
85.2730000000	44
85.3030000000	35
85.3330000000	34
85.3630000000	40
85.3930000000	36
85.4230000000	44
85.4530000000	41
85.4830000000	48
85.5130000000	40
85.5430000000	51
85.5730000000	34
85.6030000000	34
85.6330000000	50
85.6630000000	51
85.6930000000	45
85.7230000000	34
85.7530000000	48
85.7830000000	33
85.8130000000	27
85.8430000000	37
85.8730000000	38
85.9030000000	39
85.9330000000	44
85.9630000000	41
85.9930000000	36
86.0230000000	39
86.0530000000	32
86.0830000000	44
86.1130000000	41
86.1430000000	30
86.1730000000	30
86.2030000000	36
86.2330000000	37
86.2630000000	38
86.2930000000	30
86.3230000000	35
86.3530000000	39
86.3830000000	38
86.4130000000	40
86.4430000000	45
86.4730000000	33
86.5030000000	36
86.5330000000	41
86.5630000000	34
86.5930000000	48
86.6230000000	37
86.6530000000	33
86.6830000000	49
86.7130000000	40
86.7430000000	44
86.7730000000	46
86.8030000000	39
86.8330000000	47
86.8630000000	41
86.8930000000	46
86.9230000000	42
86.9530000000	38
86.9830000000	40
87.0130000000	41
87.0430000000	40
87.0730000000	42
87.1030000000	36
87.1330000000	31
87.1630000000	35
87.1930000000	44
87.2230000000	38
87.2530000000	31
87.2830000000	41
87.3130000000	38
87.3430000000	34
87.3730000000	48
87.4030000000	39
87.4330000000	48
87.4630000000	38
87.4930000000	38
87.5230000000	31
87.5530000000	49
87.5830000000	45
87.6130000000	36
87.6430000000	46
87.6730000000	37
87.7030000000	31
87.7330000000	36
87.7630000000	42
87.7930000000	34
87.8230000000	36
87.8530000000	37
87.8830000000	37
87.9130000000	26
87.9430000000	34
87.9730000000	49
88.0030000000	47
88.0330000000	42
88.0630000000	39
88.0930000000	44
88.1230000000	49
88.1530000000	46
88.1830000000	32
88.2130000000	39
88.2430000000	41
88.2730000000	42
88.3030000000	42
88.3330000000	42
88.3630000000	43
88.3930000000	42
88.4230000000	32
88.4530000000	27
88.4830000000	45
88.5130000000	49
88.5430000000	41
88.5730000000	33
88.6030000000	42
88.6330000000	35
88.6630000000	51
88.6930000000	50
88.7230000000	51
88.7530000000	50
88.7830000000	57
88.8130000000	50
88.8430000000	58
88.8730000000	72
88.9030000000	56
88.9330000000	51
88.9630000000	54
88.9930000000	51
89.0230000000	58
89.0530000000	57
89.0830000000	59
89.1130000000	41
89.1430000000	39
89.1730000000	58
89.2030000000	44
89.2330000000	45
89.2630000000	42
89.2930000000	47
89.3230000000	44
89.3530000000	47
89.3830000000	37
89.4130000000	41
89.4430000000	37
89.4730000000	43
89.5030000000	49
89.5330000000	36
89.5630000000	40
89.5930000000	44
89.6230000000	50
89.6530000000	40
89.6830000000	27
89.7130000000	30
89.7430000000	38
89.7730000000	40
89.8030000000	37
89.8330000000	35
89.8630000000	28
89.8930000000	26
89.9230000000	48
89.9530000000	51
89.9830000000	40
90.0130000000	34
90.0430000000	46
90.0730000000	30
90.1030000000	37
90.1330000000	45
90.1630000000	53
90.1930000000	56
90.2230000000	31
90.2530000000	37
90.2830000000	31
90.3130000000	41
90.3430000000	35
90.3730000000	39
90.4030000000	44
90.4330000000	33
90.4630000000	30
90.4930000000	44
90.5230000000	39
90.5530000000	31
90.5830000000	35
90.6130000000	44
90.6430000000	33
90.6730000000	47
90.7030000000	29
90.7330000000	41
90.7630000000	43
90.7930000000	37
90.8230000000	38
90.8530000000	59
90.8830000000	36
90.9130000000	42
90.9430000000	38
90.9730000000	29
91.0030000000	48
91.0330000000	39
91.0630000000	36
91.0930000000	31
91.1230000000	39
91.1530000000	32
91.1830000000	35
91.2130000000	35
91.2430000000	42
91.2730000000	35
91.3030000000	37
91.3330000000	51
91.3630000000	42
91.3930000000	37
91.4230000000	35
91.4530000000	39
91.4830000000	43
91.5130000000	48
91.5430000000	40
91.5730000000	28
91.6030000000	35
91.6330000000	43
91.6630000000	38
91.6930000000	36
91.7230000000	41
91.7530000000	35
91.7830000000	36
91.8130000000	46
91.8430000000	34
91.8730000000	45
91.9030000000	39
91.9330000000	48
91.9630000000	46
91.9930000000	46
92.0230000000	46
92.0530000000	44
92.0830000000	36
92.1130000000	47
92.1430000000	46
92.1730000000	38
92.2030000000	37
92.2330000000	35
92.2630000000	43
92.2930000000	36
92.3230000000	52
92.3530000000	41
92.3830000000	30
92.4130000000	40
92.4430000000	34
92.4730000000	34
92.5030000000	31
92.5330000000	28
92.5630000000	46
92.5930000000	44
92.6230000000	28
92.6530000000	34
92.6830000000	44
92.7130000000	39
92.7430000000	49
92.7730000000	49
92.8030000000	50
92.8330000000	47
92.8630000000	35
92.8930000000	54
92.9230000000	43
92.9530000000	39
92.9830000000	49
93.0130000000	41
93.0430000000	36
93.0730000000	34
93.1030000000	47
93.1330000000	43
93.1630000000	41
93.1930000000	49
93.2230000000	50
93.2530000000	50
93.2830000000	42
93.3130000000	35
93.3430000000	44
93.3730000000	34
93.4030000000	34
93.4330000000	39
93.4630000000	43
93.4930000000	35
93.5230000000	39
93.5530000000	45
93.5830000000	42
93.6130000000	27
93.6430000000	43
93.6730000000	37
93.7030000000	35
93.7330000000	27
93.7630000000	35
93.7930000000	44
93.8230000000	54
93.8530000000	37
93.8830000000	34
93.9130000000	36
93.9430000000	38
93.9730000000	37
94.0030000000	33
94.0330000000	45
94.0630000000	59
94.0930000000	36
94.1230000000	46
94.1530000000	53
94.1830000000	55
94.2130000000	31
94.2430000000	34
94.2730000000	39
94.3030000000	39
94.3330000000	33
94.3630000000	30
94.3930000000	37
94.4230000000	40
94.4530000000	47
94.4830000000	47
94.5130000000	39
94.5430000000	50
94.5730000000	44
94.6030000000	56
94.6330000000	72
94.6630000000	65
94.6930000000	53
94.7230000000	49
94.7530000000	60
94.7830000000	50
94.8130000000	57
94.8430000000	60
94.8730000000	66
94.9030000000	57
94.9330000000	44
94.9630000000	51
94.9930000000	55
95.0230000000	50
95.0530000000	63
95.0830000000	48
95.1130000000	40
95.1430000000	46
95.1730000000	38
95.2030000000	33
95.2330000000	36
95.2630000000	38
95.2930000000	37
95.3230000000	52
95.3530000000	35
95.3830000000	40
95.4130000000	37
95.4430000000	38
95.4730000000	39
95.5030000000	42
95.5330000000	44
95.5630000000	47
95.5930000000	36
95.6230000000	39
95.6530000000	46
95.6830000000	34
95.7130000000	54
95.7430000000	37
95.7730000000	30
95.8030000000	37
95.8330000000	39
95.8630000000	37
95.8930000000	35
95.9230000000	38
95.9530000000	41
95.9830000000	43
96.0130000000	41
96.0430000000	36
96.0730000000	39
96.1030000000	43
96.1330000000	39
96.1630000000	36
96.1930000000	35
96.2230000000	40
96.2530000000	43
96.2830000000	47
96.3130000000	47
96.3430000000	43
96.3730000000	34
96.4030000000	39
96.4330000000	47
96.4630000000	51
96.4930000000	44
96.5230000000	52
96.5530000000	38
96.5830000000	48
96.6130000000	32
96.6430000000	31
96.6730000000	33
96.7030000000	40
96.7330000000	38
96.7630000000	34
96.7930000000	39
96.8230000000	36
96.8530000000	42
96.8830000000	46
96.9130000000	45
96.9430000000	36
96.9730000000	49
97.0030000000	47
97.0330000000	45
97.0630000000	44
97.0930000000	35
97.1230000000	44
97.1530000000	43
97.1830000000	41
97.2130000000	36
97.2430000000	35
97.2730000000	41
97.3030000000	40
97.3330000000	41
97.3630000000	46
97.3930000000	50
97.4230000000	41
97.4530000000	40
97.4830000000	53
97.5130000000	38
97.5430000000	49
97.5730000000	47
97.6030000000	39
97.6330000000	45
97.6630000000	40
97.6930000000	31
97.7230000000	42
97.7530000000	43
97.7830000000	56
97.8130000000	49
97.8430000000	37
97.8730000000	36
97.9030000000	28
97.9330000000	34
97.9630000000	43
97.9930000000	45
98.0230000000	36
98.0530000000	52
98.0830000000	33
98.1130000000	50
98.1430000000	45
98.1730000000	39
98.2030000000	47
98.2330000000	35
98.2630000000	32
98.2930000000	43
98.3230000000	31
98.3530000000	33
98.3830000000	43
98.4130000000	39
98.4430000000	36
98.4730000000	31
98.5030000000	45
98.5330000000	31
98.5630000000	38
98.5930000000	39
98.6230000000	38
98.6530000000	38
98.6830000000	39
98.7130000000	40
98.7430000000	43
98.7730000000	40
98.8030000000	38
98.8330000000	42
98.8630000000	41
98.8930000000	42
98.9230000000	39
98.9530000000	44
98.9830000000	44
99.0130000000	52
99.0430000000	39
99.0730000000	39
99.1030000000	32
99.1330000000	35
99.1630000000	36
99.1930000000	32
99.2230000000	37
99.2530000000	35
99.2830000000	44
99.3130000000	36
99.3430000000	50
99.3730000000	31
99.4030000000	36
99.4330000000	33
99.4630000000	41
99.4930000000	41
99.5230000000	49
99.5530000000	33
99.5830000000	41
99.6130000000	40
99.6430000000	30
99.6730000000	36
99.7030000000	42
99.7330000000	37
99.7630000000	45
99.7930000000	42
99.8230000000	44
99.8530000000	31
99.8830000000	34
99.9130000000	37
99.9430000000	34
99.9730000000	36
100.0030000000	37
100.0330000000	36
100.0630000000	31
100.0930000000	30
100.1230000000	37
100.1530000000	40
100.1830000000	33
100.2130000000	32
100.2430000000	43
100.2730000000	37
100.3030000000	48
100.3330000000	32
100.3630000000	26
100.3930000000	37
100.4230000000	45
100.4530000000	38
100.4830000000	33
100.5130000000	28
100.5430000000	35
100.5730000000	40
100.6030000000	34
100.6330000000	43
100.6630000000	36
100.6930000000	45
100.7230000000	34
100.7530000000	43
100.7830000000	35
100.8130000000	33
100.8430000000	39
100.8730000000	37
100.9030000000	30
100.9330000000	54
100.9630000000	43
100.9930000000	46
101.0230000000	38
101.0530000000	34
101.0830000000	41
101.1130000000	39
101.1430000000	28
101.1730000000	36
101.2030000000	33
101.2330000000	49
101.2630000000	38
101.2930000000	35
101.3230000000	25
101.3530000000	37
101.3830000000	36
101.4130000000	28
101.4430000000	35
101.4730000000	41
101.5030000000	35
101.5330000000	31
101.5630000000	28
101.5930000000	33
101.6230000000	39
101.6530000000	40
101.6830000000	46
101.7130000000	48
101.7430000000	36
101.7730000000	37
101.8030000000	31
101.8330000000	37
101.8630000000	39
101.8930000000	45
101.9230000000	51
101.9530000000	35
101.9830000000	32
102.0130000000	38
102.0430000000	43
102.0730000000	31
102.1030000000	32
102.1330000000	45
102.1630000000	37
102.1930000000	27
102.2230000000	42
102.2530000000	34
102.2830000000	36
102.3130000000	35
102.3430000000	29
102.3730000000	26
102.4030000000	32
102.4330000000	32
102.4630000000	33
102.4930000000	30
102.5230000000	34
102.5530000000	38
102.5830000000	33
102.6130000000	36
102.6430000000	35
102.6730000000	32
102.7030000000	22
102.7330000000	44
102.7630000000	41
102.7930000000	37
102.8230000000	41
102.8530000000	38
102.8830000000	41
102.9130000000	48
102.9430000000	44
102.9730000000	41
103.0030000000	41
103.0330000000	36
103.0630000000	41
103.0930000000	49
103.1230000000	45
103.1530000000	44
103.1830000000	39
103.2130000000	44
103.2430000000	46
103.2730000000	40
103.3030000000	48
103.3330000000	56
103.3630000000	40
103.3930000000	37
103.4230000000	36
103.4530000000	39
103.4830000000	40
103.5130000000	28
103.5430000000	39
103.5730000000	32
103.6030000000	41
103.6330000000	47
103.6630000000	42
103.6930000000	35
103.7230000000	27
103.7530000000	46
103.7830000000	40
103.8130000000	39
103.8430000000	44
103.8730000000	43
103.9030000000	45
103.9330000000	38
103.9630000000	37
103.9930000000	40
104.0230000000	34
104.0530000000	37
104.0830000000	45
104.1130000000	42
104.1430000000	41
104.1730000000	30
104.2030000000	38
104.2330000000	40
104.2630000000	42
104.2930000000	38
104.3230000000	51
104.3530000000	43
104.3830000000	44
104.4130000000	40
104.4430000000	48
104.4730000000	58
104.5030000000	47
104.5330000000	42
104.5630000000	45
104.5930000000	30
104.6230000000	39
104.6530000000	41
104.6830000000	41
104.7130000000	36
104.7430000000	35
104.7730000000	35
104.8030000000	43
104.8330000000	35
104.8630000000	35
104.8930000000	33
104.9230000000	27
104.9530000000	34
104.9830000000	36
105.0130000000	41
105.0430000000	40
105.0730000000	33
105.1030000000	34
105.1330000000	30
105.1630000000	30
105.1930000000	41
105.2230000000	41
105.2530000000	32
105.2830000000	36
105.3130000000	34
105.3430000000	38
105.3730000000	34
105.4030000000	37
105.4330000000	50
105.4630000000	42
105.4930000000	42
105.5230000000	39
105.5530000000	44
105.5830000000	32
105.6130000000	33
105.6430000000	38
105.6730000000	33
105.7030000000	42
105.7330000000	34
105.7630000000	30
105.7930000000	41
105.8230000000	30
105.8530000000	37
105.8830000000	29
105.9130000000	29
105.9430000000	38
105.9730000000	43
106.0030000000	30
106.0330000000	35
106.0630000000	37
106.0930000000	32
106.1230000000	39
106.1530000000	47
106.1830000000	46
106.2130000000	36
106.2430000000	38
106.2730000000	40
106.3030000000	29
106.3330000000	40
106.3630000000	33
106.3930000000	44
106.4230000000	33
106.4530000000	34
106.4830000000	35
106.5130000000	45
106.5430000000	35
106.5730000000	40
106.6030000000	35
106.6330000000	36
106.6630000000	37
106.6930000000	42
106.7230000000	26
106.7530000000	30
106.7830000000	36
106.8130000000	32
106.8430000000	34
106.8730000000	32
106.9030000000	30
106.9330000000	29
106.9630000000	31
106.9930000000	38
107.0230000000	33
107.0530000000	41
107.0830000000	40
107.1130000000	34
107.1430000000	44
107.1730000000	44
107.2030000000	30
107.2330000000	31
107.2630000000	44
107.2930000000	39
107.3230000000	32
107.3530000000	37
107.3830000000	38
107.4130000000	35
107.4430000000	36
107.4730000000	35
107.5030000000	35
107.5330000000	43
107.5630000000	39
107.5930000000	37
107.6230000000	43
107.6530000000	33
107.6830000000	36
107.7130000000	42
107.7430000000	36
107.7730000000	34
107.8030000000	34
107.8330000000	40
107.8630000000	35
107.8930000000	35
107.9230000000	40
107.9530000000	33
107.9830000000	32
108.0130000000	29
108.0430000000	34
108.0730000000	36
108.1030000000	35
108.1330000000	33
108.1630000000	32
108.1930000000	30
108.2230000000	32
108.2530000000	42
108.2830000000	28
108.3130000000	33
108.3430000000	35
108.3730000000	30
108.4030000000	33
108.4330000000	34
108.4630000000	36
108.4930000000	35
108.5230000000	38
108.5530000000	36
108.5830000000	38
108.6130000000	43
108.6430000000	41
108.6730000000	32
108.7030000000	45
108.7330000000	44
108.7630000000	39
108.7930000000	36
108.8230000000	28
108.8530000000	33
108.8830000000	25
108.9130000000	36
108.9430000000	32
108.9730000000	33
109.0030000000	39
109.0330000000	36
109.0630000000	33
109.0930000000	37
109.1230000000	38
109.1530000000	38
109.1830000000	29
109.2130000000	46
109.2430000000	29
109.2730000000	41
109.3030000000	47
109.3330000000	31
109.3630000000	44
109.3930000000	31
109.4230000000	48
109.4530000000	46
109.4830000000	32
109.5130000000	30
109.5430000000	43
109.5730000000	35
109.6030000000	33
109.6330000000	40
109.6630000000	43
109.6930000000	49
109.7230000000	38
109.7530000000	36
109.7830000000	37
109.8130000000	32
109.8430000000	49
109.8730000000	38
109.9030000000	26
109.9330000000	42
109.9630000000	46
109.9930000000	41
110.0230000000	48
110.0530000000	38
110.0830000000	28
110.1130000000	45
110.1430000000	39
110.1730000000	49
110.2030000000	40
110.2330000000	40
110.2630000000	45
110.2930000000	48
110.3230000000	36
110.3530000000	47
110.3830000000	33
110.4130000000	37
110.4430000000	31
110.4730000000	34
110.5030000000	48
110.5330000000	35
110.5630000000	35
110.5930000000	39
110.6230000000	38
110.6530000000	41
110.6830000000	37
110.7130000000	42
110.7430000000	42
110.7730000000	33
110.8030000000	25
110.8330000000	37
110.8630000000	41
110.8930000000	47
110.9230000000	36
110.9530000000	33
110.9830000000	38
111.0130000000	34
111.0430000000	33
111.0730000000	34
111.1030000000	36
111.1330000000	36
111.1630000000	33
111.1930000000	33
111.2230000000	36
111.2530000000	36
111.2830000000	42
111.3130000000	45
111.3430000000	36
111.3730000000	40
111.4030000000	40
111.4330000000	37
111.4630000000	48
111.4930000000	31
111.5230000000	38
111.5530000000	41
111.5830000000	32
111.6130000000	39
111.6430000000	35
111.6730000000	39
111.7030000000	47
111.7330000000	33
111.7630000000	39
111.7930000000	48
111.8230000000	42
111.8530000000	28
111.8830000000	43
111.9130000000	42
111.9430000000	36
111.9730000000	33
112.0030000000	46
112.0330000000	44
112.0630000000	31
112.0930000000	31
112.1230000000	35
112.1530000000	44
112.1830000000	33
112.2130000000	46
112.2430000000	44
112.2730000000	52
112.3030000000	53
112.3330000000	47
112.3630000000	36
112.3930000000	30
112.4230000000	45
112.4530000000	31
112.4830000000	29
112.5130000000	33
112.5430000000	38
112.5730000000	42
112.6030000000	37
112.6330000000	35
112.6630000000	27
112.6930000000	36
112.7230000000	44
112.7530000000	37
112.7830000000	34
112.8130000000	38
112.8430000000	33
112.8730000000	31
112.9030000000	38
112.9330000000	40
112.9630000000	30
112.9930000000	33
113.0230000000	34
113.0530000000	32
113.0830000000	35
113.1130000000	32
113.1430000000	37
113.1730000000	30
113.2030000000	37
113.2330000000	47
113.2630000000	37
113.2930000000	40
113.3230000000	35
113.3530000000	43
113.3830000000	42
113.4130000000	39
113.4430000000	43
113.4730000000	43
113.5030000000	40
113.5330000000	35
113.5630000000	44
113.5930000000	44
113.6230000000	34
113.6530000000	39
113.6830000000	44
113.7130000000	41
113.7430000000	32
113.7730000000	45
113.8030000000	44
113.8330000000	40
113.8630000000	35
113.8930000000	36
113.9230000000	45
113.9530000000	30
113.9830000000	28
114.0130000000	46
114.0430000000	39
114.0730000000	40
114.1030000000	34
114.1330000000	35
114.1630000000	38
114.1930000000	35
114.2230000000	37
114.2530000000	37
114.2830000000	37
114.3130000000	42
114.3430000000	43
114.3730000000	38
114.4030000000	29
114.4330000000	30
114.4630000000	1
114.4930000000	1
114.5230000000	1
114.5530000000	1
114.5830000000	1
