0.3130000000	1
0.3430000000	1
0.3730000000	1
0.4030000000	1
0.4330000000	1
0.4630000000	1
0.4930000000	1
0.5230000000	1
0.5530000000	2
0.5830000000	3
0.6130000000	1
0.6430000000	1
0.6730000000	1
0.7030000000	1
0.7330000000	1
0.7630000000	2
0.7930000000	1
0.8230000000	1
0.8530000000	1
0.8830000000	1
0.9130000000	1
0.9430000000	1
0.9730000000	2
1.0030000000	1
1.0330000000	1
1.0630000000	1
1.0930000000	1
1.1230000000	1
1.1530000000	1
1.1830000000	1
1.2130000000	1
1.2430000000	1
1.2730000000	1
1.3030000000	1
1.3330000000	1
1.3630000000	1
1.3930000000	1
1.4230000000	1
1.4530000000	1
1.4830000000	1
1.5130000000	1
1.5430000000	1
1.5730000000	2
1.6030000000	2
1.6330000000	1
1.6630000000	1
1.6930000000	1
1.7230000000	1
1.7530000000	1
1.7830000000	1
1.8130000000	1
1.8430000000	2
1.8730000000	1
1.9030000000	1
1.9330000000	1
1.9630000000	1
1.9930000000	2
2.0230000000	1
2.0530000000	1
2.0830000000	1
2.1130000000	1
2.1430000000	2
2.1730000000	2
2.2030000000	1
2.2330000000	2
2.2630000000	2
2.2930000000	1
2.3230000000	2
2.3530000000	2
2.3830000000	1
2.4130000000	1
2.4430000000	2
2.4730000000	2
2.5030000000	1
2.5330000000	2
2.5630000000	1
2.5930000000	1
2.6230000000	2
2.6530000000	3
2.6830000000	4
2.7130000000	1
2.7430000000	1
2.7730000000	3
2.8030000000	2
2.8330000000	1
2.8630000000	1
2.8930000000	1
2.9230000000	1
2.9530000000	3
2.9830000000	2
3.0130000000	1
3.0430000000	2
3.0730000000	1
3.1030000000	1
3.1330000000	1
3.1630000000	2
3.1930000000	1
3.2230000000	1
3.2530000000	2
3.2830000000	2
3.3130000000	1
3.3430000000	2
3.3730000000	1
3.4030000000	1
3.4330000000	2
3.4630000000	3
3.4930000000	1
3.5230000000	1
3.5530000000	2
3.5830000000	2
3.6130000000	1
3.6430000000	2
3.6730000000	1
3.7030000000	2
3.7330000000	3
3.7630000000	1
3.7930000000	1
3.8230000000	3
3.8530000000	1
3.8830000000	4
3.9130000000	1
3.9430000000	1
3.9730000000	1
4.0030000000	4
4.0330000000	2
4.0630000000	3
4.0930000000	4
4.1230000000	1
4.1530000000	5
4.1830000000	3
4.2130000000	3
4.2430000000	4
4.2730000000	3
4.3030000000	5
4.3330000000	4
4.3630000000	7
4.3930000000	7
4.4230000000	3
4.4530000000	1
4.4830000000	7
4.5130000000	24
4.5430000000	34
4.5730000000	62
4.6030000000	71
4.6330000000	97
4.6630000000	108
4.6930000000	125
4.7230000000	138
4.7530000000	156
4.7830000000	156
4.8130000000	142
4.8430000000	166
4.8730000000	154
4.9030000000	137
4.9330000000	157
4.9630000000	142
4.9930000000	161
5.0230000000	158
5.0530000000	151
5.0830000000	125
5.1130000000	157
5.1430000000	149
5.1730000000	181
5.2030000000	156
5.2330000000	160
5.2630000000	144
5.2930000000	158
5.3230000000	161
5.3530000000	158
5.3830000000	150
5.4130000000	135
5.4430000000	165
5.4730000000	160
5.5030000000	142
5.5330000000	157
5.5630000000	147
5.5930000000	160
5.6230000000	159
5.6530000000	155
5.6830000000	132
5.7130000000	155
5.7430000000	149
5.7730000000	149
5.8030000000	174
5.8330000000	173
5.8630000000	181
5.8930000000	157
5.9230000000	167
5.9530000000	171
5.9830000000	165
6.0130000000	159
6.0430000000	166
6.0730000000	175
6.1030000000	155
6.1330000000	179
6.1630000000	168
6.1930000000	146
6.2230000000	169
6.2530000000	156
6.2830000000	160
6.3130000000	144
6.3430000000	169
6.3730000000	154
6.4030000000	164
6.4330000000	160
6.4630000000	150
6.4930000000	135
6.5230000000	140
6.5530000000	182
6.5830000000	152
6.6130000000	176
6.6430000000	158
6.6730000000	152
6.7030000000	137
6.7330000000	164
6.7630000000	167
6.7930000000	156
6.8230000000	160
6.8530000000	172
6.8830000000	168
6.9130000000	175
6.9430000000	175
6.9730000000	149
7.0030000000	138
7.0330000000	155
7.0630000000	177
7.0930000000	177
7.1230000000	156
7.1530000000	155
7.1830000000	148
7.2130000000	163
7.2430000000	180
7.2730000000	176
7.3030000000	172
7.3330000000	167
7.3630000000	155
7.3930000000	153
7.4230000000	155
7.4530000000	155
7.4830000000	157
7.5130000000	150
7.5430000000	146
7.5730000000	153
7.6030000000	162
7.6330000000	155
7.6630000000	145
7.6930000000	163
7.7230000000	175
7.7530000000	156
7.7830000000	142
7.8130000000	159
7.8430000000	150
7.8730000000	167
7.9030000000	175
7.9330000000	146
7.9630000000	147
7.9930000000	150
8.0230000000	174
8.0530000000	164
8.0830000000	165
8.1130000000	142
8.1430000000	159
8.1730000000	169
8.2030000000	154
8.2330000000	157
8.2630000000	159
8.2930000000	157
8.3230000000	149
8.3530000000	179
8.3830000000	148
8.4130000000	174
8.4430000000	173
8.4730000000	174
8.5030000000	151
8.5330000000	176
8.5630000000	166
8.5930000000	175
8.6230000000	147
8.6530000000	136
8.6830000000	158
8.7130000000	162
8.7430000000	171
8.7730000000	136
8.8030000000	153
8.8330000000	171
8.8630000000	141
8.8930000000	169
8.9230000000	138
8.9530000000	164
8.9830000000	173
9.0130000000	191
9.0430000000	138
9.0730000000	161
9.1030000000	169
9.1330000000	172
9.1630000000	163
9.1930000000	139
9.2230000000	182
9.2530000000	164
9.2830000000	153
9.3130000000	163
9.3430000000	142
9.3730000000	149
9.4030000000	154
9.4330000000	172
9.4630000000	152
9.4930000000	169
9.5230000000	151
9.5530000000	166
9.5830000000	153
9.6130000000	133
9.6430000000	178
9.6730000000	161
9.7030000000	155
9.7330000000	141
9.7630000000	167
9.7930000000	181
9.8230000000	188
9.8530000000	167
9.8830000000	158
9.9130000000	179
9.9430000000	165
9.9730000000	169
10.0030000000	162
10.0330000000	163
10.0630000000	148
10.0930000000	188
10.1230000000	195
10.1530000000	133
10.1830000000	185
10.2130000000	169
10.2430000000	151
10.2730000000	153
10.3030000000	163
10.3330000000	159
10.3630000000	153
10.3930000000	139
10.4230000000	156
10.4530000000	161
10.4830000000	189
10.5130000000	163
10.5430000000	173
10.5730000000	176
10.6030000000	149
10.6330000000	146
10.6630000000	147
10.6930000000	166
10.7230000000	146
10.7530000000	188
10.7830000000	156
10.8130000000	168
10.8430000000	169
10.8730000000	164
10.9030000000	164
10.9330000000	167
10.9630000000	147
10.9930000000	162
11.0230000000	156
11.0530000000	188
11.0830000000	145
11.1130000000	161
11.1430000000	170
11.1730000000	152
11.2030000000	157
11.2330000000	153
11.2630000000	170
11.2930000000	173
11.3230000000	141
11.3530000000	192
11.3830000000	177
11.4130000000	168
11.4430000000	182
11.4730000000	191
11.5030000000	156
11.5330000000	153
11.5630000000	160
11.5930000000	172
11.6230000000	162
11.6530000000	158
11.6830000000	167
11.7130000000	180
11.7430000000	165
11.7730000000	169
11.8030000000	160
11.8330000000	139
11.8630000000	159
11.8930000000	173
11.9230000000	175
11.9530000000	145
11.9830000000	164
12.0130000000	154
12.0430000000	148
12.0730000000	143
12.1030000000	162
12.1330000000	157
12.1630000000	173
12.1930000000	175
12.2230000000	165
12.2530000000	176
12.2830000000	161
12.3130000000	165
12.3430000000	158
12.3730000000	184
12.4030000000	174
12.4330000000	166
12.4630000000	173
12.4930000000	172
12.5230000000	171
12.5530000000	171
12.5830000000	173
12.6130000000	158
12.6430000000	160
12.6730000000	176
12.7030000000	169
12.7330000000	149
12.7630000000	148
12.7930000000	158
12.8230000000	165
12.8530000000	172
12.8830000000	147
12.9130000000	152
12.9430000000	171
12.9730000000	158
13.0030000000	172
13.0330000000	184
13.0630000000	176
13.0930000000	164
13.1230000000	156
13.1530000000	159
13.1830000000	147
13.2130000000	165
13.2430000000	168
13.2730000000	145
13.3030000000	167
13.3330000000	179
13.3630000000	163
13.3930000000	202
13.4230000000	154
13.4530000000	177
13.4830000000	187
13.5130000000	157
13.5430000000	171
13.5730000000	177
13.6030000000	153
13.6330000000	171
13.6630000000	179
13.6930000000	164
13.7230000000	169
13.7530000000	169
13.7830000000	146
13.8130000000	160
13.8430000000	180
13.8730000000	185
13.9030000000	184
13.9330000000	164
13.9630000000	177
13.9930000000	164
14.0230000000	151
14.0530000000	159
14.0830000000	186
14.1130000000	150
14.1430000000	165
14.1730000000	162
14.2030000000	166
14.2330000000	181
14.2630000000	174
14.2930000000	169
14.3230000000	157
14.3530000000	172
14.3830000000	169
14.4130000000	160
14.4430000000	168
14.4730000000	148
14.5030000000	172
14.5330000000	164
14.5630000000	152
14.5930000000	160
14.6230000000	162
14.6530000000	198
14.6830000000	163
14.7130000000	164
14.7430000000	182
14.7730000000	170
14.8030000000	169
14.8330000000	169
14.8630000000	206
14.8930000000	200
14.9230000000	181
14.9530000000	171
14.9830000000	157
15.0130000000	199
15.0430000000	177
15.0730000000	184
15.1030000000	162
15.1330000000	167
15.1630000000	182
15.1930000000	187
15.2230000000	171
15.2530000000	182
15.2830000000	207
15.3130000000	151
15.3430000000	183
15.3730000000	173
15.4030000000	178
15.4330000000	175
15.4630000000	179
15.4930000000	166
15.5230000000	162
15.5530000000	165
15.5830000000	150
15.6130000000	177
15.6430000000	179
15.6730000000	164
15.7030000000	176
15.7330000000	162
15.7630000000	159
15.7930000000	170
15.8230000000	157
15.8530000000	173
15.8830000000	147
15.9130000000	165
15.9430000000	182
15.9730000000	150
16.0030000000	140
16.0330000000	134
16.0630000000	183
16.0930000000	161
16.1230000000	176
16.1530000000	141
16.1830000000	155
16.2130000000	174
16.2430000000	184
16.2730000000	182
16.3030000000	176
16.3330000000	171
16.3630000000	187
16.3930000000	171
16.4230000000	185
16.4530000000	151
16.4830000000	179
16.5130000000	163
16.5430000000	180
16.5730000000	193
16.6030000000	172
16.6330000000	198
16.6630000000	164
16.6930000000	188
16.7230000000	144
16.7530000000	169
16.7830000000	175
16.8130000000	156
16.8430000000	160
16.8730000000	175
16.9030000000	163
16.9330000000	165
16.9630000000	158
16.9930000000	164
17.0230000000	191
17.0530000000	174
17.0830000000	160
17.1130000000	154
17.1430000000	188
17.1730000000	187
17.2030000000	166
17.2330000000	155
17.2630000000	177
17.2930000000	161
17.3230000000	172
17.3530000000	160
17.3830000000	179
17.4130000000	173
17.4430000000	168
17.4730000000	171
17.5030000000	173
17.5330000000	181
17.5630000000	185
17.5930000000	192
17.6230000000	198
17.6530000000	181
17.6830000000	173
17.7130000000	166
17.7430000000	180
17.7730000000	188
17.8030000000	164
17.8330000000	158
17.8630000000	164
17.8930000000	164
17.9230000000	173
17.9530000000	170
17.9830000000	173
18.0130000000	185
18.0430000000	172
18.0730000000	166
18.1030000000	185
18.1330000000	170
18.1630000000	162
18.1930000000	174
18.2230000000	169
18.2530000000	158
18.2830000000	181
18.3130000000	173
18.3430000000	183
18.3730000000	181
18.4030000000	190
18.4330000000	154
18.4630000000	198
18.4930000000	168
18.5230000000	176
18.5530000000	204
18.5830000000	189
18.6130000000	199
18.6430000000	183
18.6730000000	187
18.7030000000	169
18.7330000000	156
18.7630000000	178
18.7930000000	205
18.8230000000	173
18.8530000000	181
18.8830000000	179
18.9130000000	180
18.9430000000	189
18.9730000000	198
19.0030000000	181
19.0330000000	193
19.0630000000	189
19.0930000000	189
19.1230000000	177
19.1530000000	193
19.1830000000	178
19.2130000000	185
19.2430000000	187
19.2730000000	194
19.3030000000	196
19.3330000000	206
19.3630000000	181
19.3930000000	184
19.4230000000	186
19.4530000000	204
19.4830000000	192
19.5130000000	200
19.5430000000	211
19.5730000000	206
19.6030000000	188
19.6330000000	168
19.6630000000	180
19.6930000000	204
19.7230000000	200
19.7530000000	203
19.7830000000	205
19.8130000000	194
19.8430000000	218
19.8730000000	224
19.9030000000	198
19.9330000000	181
19.9630000000	179
19.9930000000	172
20.0230000000	190
20.0530000000	186
20.0830000000	205
20.1130000000	193
20.1430000000	208
20.1730000000	184
20.2030000000	235
20.2330000000	225
20.2630000000	185
20.2930000000	206
20.3230000000	205
20.3530000000	194
20.3830000000	226
20.4130000000	207
20.4430000000	217
20.4730000000	208
20.5030000000	217
20.5330000000	202
20.5630000000	203
20.5930000000	181
20.6230000000	166
20.6530000000	199
20.6830000000	238
20.7130000000	229
20.7430000000	230
20.7730000000	187
20.8030000000	182
20.8330000000	194
20.8630000000	211
20.8930000000	220
20.9230000000	216
20.9530000000	205
20.9830000000	204
21.0130000000	223
21.0430000000	219
21.0730000000	237
21.1030000000	208
21.1330000000	205
21.1630000000	240
21.1930000000	234
21.2230000000	220
21.2530000000	245
21.2830000000	233
21.3130000000	227
21.3430000000	239
21.3730000000	226
21.4030000000	222
21.4330000000	236
21.4630000000	251
21.4930000000	222
21.5230000000	221
21.5530000000	225
21.5830000000	249
21.6130000000	231
21.6430000000	197
21.6730000000	248
21.7030000000	220
21.7330000000	237
21.7630000000	218
21.7930000000	246
21.8230000000	274
21.8530000000	226
21.8830000000	234
21.9130000000	234
21.9430000000	257
21.9730000000	249
22.0030000000	271
22.0330000000	265
22.0630000000	247
22.0930000000	241
22.1230000000	253
22.1530000000	253
22.1830000000	253
22.2130000000	270
22.2430000000	271
22.2730000000	262
22.3030000000	267
22.3330000000	254
22.3630000000	250
22.3930000000	247
22.4230000000	258
22.4530000000	270
22.4830000000	266
22.5130000000	276
22.5430000000	261
22.5730000000	247
22.6030000000	259
22.6330000000	265
22.6630000000	274
22.6930000000	269
22.7230000000	239
22.7530000000	248
22.7830000000	291
22.8130000000	246
22.8430000000	248
22.8730000000	265
22.9030000000	270
22.9330000000	256
22.9630000000	267
22.9930000000	236
23.0230000000	248
23.0530000000	257
23.0830000000	267
23.1130000000	255
23.1430000000	258
23.1730000000	243
23.2030000000	279
23.2330000000	254
23.2630000000	232
23.2930000000	228
23.3230000000	246
23.3530000000	235
23.3830000000	240
23.4130000000	258
23.4430000000	254
23.4730000000	225
23.5030000000	225
23.5330000000	251
23.5630000000	260
23.5930000000	279
23.6230000000	256
23.6530000000	222
23.6830000000	233
23.7130000000	243
23.7430000000	238
23.7730000000	249
23.8030000000	240
23.8330000000	266
23.8630000000	269
23.8930000000	262
23.9230000000	257
23.9530000000	270
23.9830000000	257
24.0130000000	255
24.0430000000	209
24.0730000000	259
24.1030000000	233
24.1330000000	241
24.1630000000	261
24.1930000000	238
24.2230000000	236
24.2530000000	234
24.2830000000	230
24.3130000000	256
24.3430000000	214
24.3730000000	261
24.4030000000	221
24.4330000000	251
24.4630000000	263
24.4930000000	241
24.5230000000	245
24.5530000000	259
24.5830000000	231
24.6130000000	230
24.6430000000	223
24.6730000000	272
24.7030000000	242
24.7330000000	231
24.7630000000	222
24.7930000000	220
24.8230000000	228
24.8530000000	236
24.8830000000	255
24.9130000000	267
24.9430000000	232
24.9730000000	249
25.0030000000	250
25.0330000000	224
25.0630000000	243
25.0930000000	238
25.1230000000	237
25.1530000000	220
25.1830000000	246
25.2130000000	239
25.2430000000	228
25.2730000000	227
25.3030000000	228
25.3330000000	248
25.3630000000	252
25.3930000000	231
25.4230000000	263
25.4530000000	239
25.4830000000	226
25.5130000000	228
25.5430000000	242
25.5730000000	220
25.6030000000	243
25.6330000000	223
25.6630000000	258
25.6930000000	261
25.7230000000	256
25.7530000000	226
25.7830000000	227
25.8130000000	242
25.8430000000	206
25.8730000000	222
25.9030000000	217
25.9330000000	212
25.9630000000	246
25.9930000000	228
26.0230000000	251
26.0530000000	238
26.0830000000	252
26.1130000000	222
26.1430000000	222
26.1730000000	221
26.2030000000	238
26.2330000000	211
26.2630000000	235
26.2930000000	238
26.3230000000	222
26.3530000000	214
26.3830000000	239
26.4130000000	234
26.4430000000	228
26.4730000000	205
26.5030000000	236
26.5330000000	245
26.5630000000	209
26.5930000000	250
26.6230000000	244
26.6530000000	220
26.6830000000	248
26.7130000000	248
26.7430000000	227
26.7730000000	229
26.8030000000	213
26.8330000000	208
26.8630000000	200
26.8930000000	208
26.9230000000	214
26.9530000000	218
26.9830000000	222
27.0130000000	224
27.0430000000	212
27.0730000000	217
27.1030000000	236
27.1330000000	225
27.1630000000	234
27.1930000000	243
27.2230000000	232
27.2530000000	218
27.2830000000	204
27.3130000000	220
27.3430000000	218
27.3730000000	202
27.4030000000	210
27.4330000000	204
27.4630000000	181
27.4930000000	201
27.5230000000	224
27.5530000000	191
27.5830000000	219
27.6130000000	187
27.6430000000	224
27.6730000000	224
27.7030000000	228
27.7330000000	198
27.7630000000	223
27.7930000000	211
27.8230000000	211
27.8530000000	232
27.8830000000	215
27.9130000000	233
27.9430000000	219
27.9730000000	237
28.0030000000	233
28.0330000000	207
28.0630000000	228
28.0930000000	203
28.1230000000	219
28.1530000000	188
28.1830000000	213
28.2130000000	244
28.2430000000	220
28.2730000000	211
28.3030000000	253
28.3330000000	227
28.3630000000	215
28.3930000000	238
28.4230000000	234
28.4530000000	214
28.4830000000	206
28.5130000000	195
28.5430000000	233
28.5730000000	219
28.6030000000	223
28.6330000000	237
28.6630000000	239
28.6930000000	236
28.7230000000	216
28.7530000000	228
28.7830000000	207
28.8130000000	209
28.8430000000	221
28.8730000000	205
28.9030000000	237
28.9330000000	199
28.9630000000	204
28.9930000000	224
29.0230000000	206
29.0530000000	232
29.0830000000	208
29.1130000000	227
29.1430000000	208
29.1730000000	195
29.2030000000	226
29.2330000000	232
29.2630000000	212
29.2930000000	230
29.3230000000	199
29.3530000000	200
29.3830000000	205
29.4130000000	211
29.4430000000	202
29.4730000000	189
29.5030000000	200
29.5330000000	231
29.5630000000	183
29.5930000000	185
29.6230000000	198
29.6530000000	188
29.6830000000	220
29.7130000000	205
29.7430000000	210
29.7730000000	225
29.8030000000	188
29.8330000000	198
29.8630000000	189
29.8930000000	177
29.9230000000	203
29.9530000000	216
29.9830000000	211
30.0130000000	212
30.0430000000	182
30.0730000000	183
30.1030000000	193
30.1330000000	193
30.1630000000	198
30.1930000000	217
30.2230000000	212
30.2530000000	196
30.2830000000	206
30.3130000000	203
30.3430000000	192
30.3730000000	185
30.4030000000	219
30.4330000000	198
30.4630000000	193
30.4930000000	208
30.5230000000	206
30.5530000000	195
30.5830000000	225
30.6130000000	201
30.6430000000	175
30.6730000000	196
30.7030000000	200
30.7330000000	219
30.7630000000	187
30.7930000000	181
30.8230000000	207
30.8530000000	218
30.8830000000	208
30.9130000000	203
30.9430000000	213
30.9730000000	215
31.0030000000	194
31.0330000000	210
31.0630000000	214
31.0930000000	203
31.1230000000	213
31.1530000000	221
31.1830000000	204
31.2130000000	223
31.2430000000	196
31.2730000000	177
31.3030000000	223
31.3330000000	201
31.3630000000	224
31.3930000000	209
31.4230000000	194
31.4530000000	239
31.4830000000	223
31.5130000000	220
31.5430000000	202
31.5730000000	209
31.6030000000	203
31.6330000000	213
31.6630000000	208
31.6930000000	197
31.7230000000	191
31.7530000000	193
31.7830000000	199
31.8130000000	162
31.8430000000	166
31.8730000000	182
31.9030000000	174
31.9330000000	158
31.9630000000	186
31.9930000000	211
32.0230000000	193
32.0530000000	177
32.0830000000	187
32.1130000000	175
32.1430000000	176
32.1730000000	205
32.2030000000	177
32.2330000000	173
32.2630000000	202
32.2930000000	167
32.3230000000	183
32.3530000000	193
32.3830000000	170
32.4130000000	224
32.4430000000	178
32.4730000000	169
32.5030000000	191
32.5330000000	189
32.5630000000	190
32.5930000000	194
32.6230000000	163
32.6530000000	164
32.6830000000	181
32.7130000000	188
32.7430000000	174
32.7730000000	176
32.8030000000	194
32.8330000000	193
32.8630000000	173
32.8930000000	153
32.9230000000	162
32.9530000000	170
32.9830000000	165
33.0130000000	176
33.0430000000	176
33.0730000000	170
33.1030000000	168
33.1330000000	191
33.1630000000	171
33.1930000000	187
33.2230000000	175
33.2530000000	187
33.2830000000	177
33.3130000000	175
33.3430000000	179
33.3730000000	166
33.4030000000	164
33.4330000000	170
33.4630000000	161
33.4930000000	174
33.5230000000	162
33.5530000000	163
33.5830000000	176
33.6130000000	165
33.6430000000	143
33.6730000000	144
33.7030000000	169
33.7330000000	185
33.7630000000	154
33.7930000000	154
33.8230000000	177
33.8530000000	154
33.8830000000	138
33.9130000000	158
33.9430000000	158
33.9730000000	164
34.0030000000	155
34.0330000000	155
34.0630000000	168
34.0930000000	176
34.1230000000	160
34.1530000000	159
34.1830000000	158
34.2130000000	164
34.2430000000	156
34.2730000000	173
34.3030000000	158
34.3330000000	147
34.3630000000	175
34.3930000000	159
34.4230000000	154
34.4530000000	137
34.4830000000	144
34.5130000000	151
34.5430000000	149
34.5730000000	138
34.6030000000	142
34.6330000000	172
34.6630000000	148
34.6930000000	146
34.7230000000	138
34.7530000000	144
34.7830000000	162
34.8130000000	155
34.8430000000	150
34.8730000000	162
34.9030000000	150
34.9330000000	161
34.9630000000	147
34.9930000000	147
35.0230000000	124
35.0530000000	165
35.0830000000	146
35.1130000000	155
35.1430000000	171
35.1730000000	147
35.2030000000	148
35.2330000000	136
35.2630000000	156
35.2930000000	150
35.3230000000	135
35.3530000000	139
35.3830000000	146
35.4130000000	120
35.4430000000	145
35.4730000000	147
35.5030000000	146
35.5330000000	118
35.5630000000	134
35.5930000000	130
35.6230000000	126
35.6530000000	122
35.6830000000	147
35.7130000000	142
35.7430000000	148
35.7730000000	153
35.8030000000	125
35.8330000000	150
35.8630000000	126
35.8930000000	112
35.9230000000	116
35.9530000000	131
35.9830000000	113
36.0130000000	126
36.0430000000	138
36.0730000000	136
36.1030000000	144
36.1330000000	151
36.1630000000	127
36.1930000000	125
36.2230000000	124
36.2530000000	144
36.2830000000	118
36.3130000000	109
36.3430000000	120
36.3730000000	126
36.4030000000	132
36.4330000000	140
36.4630000000	138
36.4930000000	134
36.5230000000	130
36.5530000000	129
36.5830000000	142
36.6130000000	136
36.6430000000	119
36.6730000000	117
36.7030000000	125
36.7330000000	147
36.7630000000	146
36.7930000000	130
36.8230000000	119
36.8530000000	113
36.8830000000	124
36.9130000000	121
36.9430000000	129
36.9730000000	127
37.0030000000	110
37.0330000000	110
37.0630000000	132
37.0930000000	134
37.1230000000	124
37.1530000000	125
37.1830000000	118
37.2130000000	110
37.2430000000	123
37.2730000000	126
37.3030000000	127
37.3330000000	122
37.3630000000	121
37.3930000000	136
37.4230000000	114
37.4530000000	123
37.4830000000	125
37.5130000000	114
37.5430000000	117
37.5730000000	110
37.6030000000	113
37.6330000000	129
37.6630000000	124
37.6930000000	115
37.7230000000	125
37.7530000000	109
37.7830000000	109
37.8130000000	124
37.8430000000	118
37.8730000000	105
37.9030000000	108
37.9330000000	118
37.9630000000	113
37.9930000000	112
38.0230000000	115
38.0530000000	108
38.0830000000	140
38.1130000000	103
38.1430000000	98
38.1730000000	110
38.2030000000	118
38.2330000000	116
38.2630000000	109
38.2930000000	97
38.3230000000	115
38.3530000000	115
38.3830000000	107
38.4130000000	103
38.4430000000	115
38.4730000000	122
38.5030000000	130
38.5330000000	120
38.5630000000	115
38.5930000000	108
38.6230000000	107
38.6530000000	118
38.6830000000	121
38.7130000000	102
38.7430000000	110
38.7730000000	101
38.8030000000	96
38.8330000000	115
38.8630000000	107
38.8930000000	105
38.9230000000	102
38.9530000000	109
38.9830000000	103
39.0130000000	97
39.0430000000	131
39.0730000000	107
39.1030000000	114
39.1330000000	110
39.1630000000	130
39.1930000000	122
39.2230000000	110
39.2530000000	96
39.2830000000	101
39.3130000000	96
39.3430000000	104
39.3730000000	111
39.4030000000	104
39.4330000000	126
39.4630000000	107
39.4930000000	116
39.5230000000	108
39.5530000000	107
39.5830000000	109
39.6130000000	111
39.6430000000	109
39.6730000000	100
39.7030000000	101
39.7330000000	100
39.7630000000	121
39.7930000000	93
39.8230000000	92
39.8530000000	104
39.8830000000	85
39.9130000000	98
39.9430000000	111
39.9730000000	108
40.0030000000	95
40.0330000000	98
40.0630000000	96
40.0930000000	106
40.1230000000	101
40.1530000000	113
40.1830000000	95
40.2130000000	105
40.2430000000	80
40.2730000000	93
40.3030000000	97
40.3330000000	88
40.3630000000	104
40.3930000000	103
40.4230000000	101
40.4530000000	78
40.4830000000	88
40.5130000000	100
40.5430000000	121
40.5730000000	78
40.6030000000	108
40.6330000000	108
40.6630000000	107
40.6930000000	109
40.7230000000	104
40.7530000000	108
40.7830000000	111
40.8130000000	106
40.8430000000	100
40.8730000000	111
40.9030000000	94
40.9330000000	93
40.9630000000	104
40.9930000000	100
41.0230000000	98
41.0530000000	95
41.0830000000	115
41.1130000000	104
41.1430000000	121
41.1730000000	114
41.2030000000	103
41.2330000000	111
41.2630000000	100
41.2930000000	106
41.3230000000	87
41.3530000000	106
41.3830000000	125
41.4130000000	107
41.4430000000	96
41.4730000000	96
41.5030000000	86
41.5330000000	112
41.5630000000	98
41.5930000000	93
41.6230000000	102
41.6530000000	90
41.6830000000	96
41.7130000000	97
41.7430000000	106
41.7730000000	107
41.8030000000	111
41.8330000000	101
41.8630000000	102
41.8930000000	101
41.9230000000	111
41.9530000000	99
41.9830000000	92
42.0130000000	83
42.0430000000	84
42.0730000000	92
42.1030000000	95
42.1330000000	97
42.1630000000	89
42.1930000000	106
42.2230000000	97
42.2530000000	99
42.2830000000	111
42.3130000000	100
42.3430000000	86
42.3730000000	93
42.4030000000	82
42.4330000000	86
42.4630000000	94
42.4930000000	95
42.5230000000	96
42.5530000000	101
42.5830000000	115
42.6130000000	96
42.6430000000	90
42.6730000000	90
42.7030000000	80
42.7330000000	87
42.7630000000	82
42.7930000000	90
42.8230000000	113
42.8530000000	92
42.8830000000	93
42.9130000000	112
42.9430000000	92
42.9730000000	101
43.0030000000	87
43.0330000000	83
43.0630000000	85
43.0930000000	107
43.1230000000	101
43.1530000000	99
43.1830000000	94
43.2130000000	88
43.2430000000	69
43.2730000000	93
43.3030000000	84
43.3330000000	80
43.3630000000	98
43.3930000000	71
43.4230000000	104
43.4530000000	91
43.4830000000	82
43.5130000000	99
43.5430000000	96
43.5730000000	86
43.6030000000	89
43.6330000000	86
43.6630000000	77
43.6930000000	80
43.7230000000	91
43.7530000000	82
43.7830000000	89
43.8130000000	86
43.8430000000	70
43.8730000000	88
43.9030000000	96
43.9330000000	73
43.9630000000	84
43.9930000000	81
44.0230000000	98
44.0530000000	89
44.0830000000	108
44.1130000000	82
44.1430000000	92
44.1730000000	87
44.2030000000	82
44.2330000000	88
44.2630000000	92
44.2930000000	96
44.3230000000	70
44.3530000000	70
44.3830000000	93
44.4130000000	97
44.4430000000	84
44.4730000000	91
44.5030000000	91
44.5330000000	87
44.5630000000	80
44.5930000000	82
44.6230000000	75
44.6530000000	80
44.6830000000	75
44.7130000000	83
44.7430000000	93
44.7730000000	70
44.8030000000	90
44.8330000000	80
44.8630000000	77
44.8930000000	91
44.9230000000	80
44.9530000000	76
44.9830000000	97
45.0130000000	98
45.0430000000	84
45.0730000000	78
45.1030000000	94
45.1330000000	73
45.1630000000	69
45.1930000000	78
45.2230000000	67
45.2530000000	80
45.2830000000	77
45.3130000000	77
45.3430000000	86
45.3730000000	100
45.4030000000	90
45.4330000000	91
45.4630000000	77
45.4930000000	77
45.5230000000	95
45.5530000000	83
45.5830000000	68
45.6130000000	84
45.6430000000	80
45.6730000000	74
45.7030000000	92
45.7330000000	95
45.7630000000	74
45.7930000000	61
45.8230000000	76
45.8530000000	76
45.8830000000	86
45.9130000000	88
45.9430000000	77
45.9730000000	79
46.0030000000	78
46.0330000000	77
46.0630000000	76
46.0930000000	92
46.1230000000	68
46.1530000000	89
46.1830000000	93
46.2130000000	85
46.2430000000	71
46.2730000000	72
46.3030000000	60
46.3330000000	84
46.3630000000	88
46.3930000000	63
46.4230000000	84
46.4530000000	85
46.4830000000	65
46.5130000000	71
46.5430000000	73
46.5730000000	72
46.6030000000	70
46.6330000000	73
46.6630000000	73
46.6930000000	61
46.7230000000	74
46.7530000000	81
46.7830000000	87
46.8130000000	88
46.8430000000	76
46.8730000000	70
46.9030000000	74
46.9330000000	90
46.9630000000	76
46.9930000000	71
47.0230000000	77
47.0530000000	78
47.0830000000	72
47.1130000000	72
47.1430000000	80
47.1730000000	76
47.2030000000	72
47.2330000000	70
47.2630000000	74
47.2930000000	65
47.3230000000	90
47.3530000000	75
47.3830000000	88
47.4130000000	79
47.4430000000	65
47.4730000000	77
47.5030000000	83
47.5330000000	76
47.5630000000	77
47.5930000000	74
47.6230000000	79
47.6530000000	77
47.6830000000	76
47.7130000000	75
47.7430000000	78
47.7730000000	65
47.8030000000	71
47.8330000000	66
47.8630000000	60
47.8930000000	70
47.9230000000	65
47.9530000000	61
47.9830000000	67
48.0130000000	64
48.0430000000	78
48.0730000000	87
48.1030000000	82
48.1330000000	88
48.1630000000	69
48.1930000000	76
48.2230000000	64
48.2530000000	63
48.2830000000	74
48.3130000000	79
48.3430000000	80
48.3730000000	62
48.4030000000	67
48.4330000000	60
48.4630000000	71
48.4930000000	72
48.5230000000	59
48.5530000000	73
48.5830000000	63
48.6130000000	72
48.6430000000	73
48.6730000000	58
48.7030000000	67
48.7330000000	71
48.7630000000	73
48.7930000000	73
48.8230000000	65
48.8530000000	55
48.8830000000	65
48.9130000000	65
48.9430000000	52
48.9730000000	63
49.0030000000	81
49.0330000000	71
49.0630000000	46
49.0930000000	66
49.1230000000	55
49.1530000000	65
49.1830000000	70
49.2130000000	58
49.2430000000	68
49.2730000000	78
49.3030000000	78
49.3330000000	76
49.3630000000	72
49.3930000000	56
49.4230000000	61
49.4530000000	54
49.4830000000	54
49.5130000000	62
49.5430000000	71
49.5730000000	70
49.6030000000	54
49.6330000000	64
49.6630000000	81
49.6930000000	63
49.7230000000	64
49.7530000000	51
49.7830000000	68
49.8130000000	66
49.8430000000	60
49.8730000000	79
49.9030000000	77
49.9330000000	60
49.9630000000	75
49.9930000000	54
50.0230000000	60
50.0530000000	70
50.0830000000	70
50.1130000000	68
50.1430000000	67
50.1730000000	71
50.2030000000	57
50.2330000000	73
50.2630000000	60
50.2930000000	60
50.3230000000	66
50.3530000000	59
50.3830000000	71
50.4130000000	78
50.4430000000	70
50.4730000000	65
50.5030000000	73
50.5330000000	72
50.5630000000	63
50.5930000000	69
50.6230000000	68
50.6530000000	74
50.6830000000	63
50.7130000000	61
50.7430000000	69
50.7730000000	74
50.8030000000	65
50.8330000000	54
50.8630000000	54
50.8930000000	59
50.9230000000	72
50.9530000000	64
50.9830000000	58
51.0130000000	70
51.0430000000	64
51.0730000000	49
51.1030000000	50
51.1330000000	60
51.1630000000	54
51.1930000000	57
51.2230000000	60
51.2530000000	59
51.2830000000	68
51.3130000000	62
51.3430000000	62
51.3730000000	69
51.4030000000	55
51.4330000000	60
51.4630000000	49
51.4930000000	49
51.5230000000	50
51.5530000000	51
51.5830000000	57
51.6130000000	46
51.6430000000	54
51.6730000000	65
51.7030000000	60
51.7330000000	58
51.7630000000	41
51.7930000000	67
51.8230000000	53
51.8530000000	42
51.8830000000	57
51.9130000000	64
51.9430000000	59
51.9730000000	52
52.0030000000	66
52.0330000000	47
52.0630000000	61
52.0930000000	67
52.1230000000	65
52.1530000000	49
52.1830000000	48
52.2130000000	46
52.2430000000	54
52.2730000000	53
52.3030000000	71
52.3330000000	52
52.3630000000	63
52.3930000000	54
52.4230000000	67
52.4530000000	53
52.4830000000	57
52.5130000000	58
52.5430000000	63
52.5730000000	59
52.6030000000	60
52.6330000000	51
52.6630000000	68
52.6930000000	56
52.7230000000	54
52.7530000000	67
52.7830000000	68
52.8130000000	49
52.8430000000	59
52.8730000000	64
52.9030000000	64
52.9330000000	53
52.9630000000	49
52.9930000000	63
53.0230000000	62
53.0530000000	56
53.0830000000	51
53.1130000000	55
53.1430000000	50
53.1730000000	42
53.2030000000	42
53.2330000000	56
53.2630000000	51
53.2930000000	62
53.3230000000	60
53.3530000000	52
53.3830000000	50
53.4130000000	62
53.4430000000	43
53.4730000000	59
53.5030000000	54
53.5330000000	48
53.5630000000	52
53.5930000000	58
53.6230000000	62
53.6530000000	49
53.6830000000	53
53.7130000000	55
53.7430000000	55
53.7730000000	56
53.8030000000	52
53.8330000000	56
53.8630000000	65
53.8930000000	46
53.9230000000	57
53.9530000000	54
53.9830000000	66
54.0130000000	66
54.0430000000	52
54.0730000000	57
54.1030000000	49
54.1330000000	55
54.1630000000	52
54.1930000000	49
54.2230000000	44
54.2530000000	52
54.2830000000	53
54.3130000000	43
54.3430000000	44
54.3730000000	54
54.4030000000	40
54.4330000000	52
54.4630000000	43
54.4930000000	43
54.5230000000	54
54.5530000000	47
54.5830000000	34
54.6130000000	54
54.6430000000	51
54.6730000000	56
54.7030000000	45
54.7330000000	58
54.7630000000	56
54.7930000000	38
54.8230000000	61
54.8530000000	50
54.8830000000	47
54.9130000000	57
54.9430000000	36
54.9730000000	54
55.0030000000	51
55.0330000000	58
55.0630000000	55
55.0930000000	50
55.1230000000	60
55.1530000000	58
55.1830000000	51
55.2130000000	60
55.2430000000	47
55.2730000000	49
55.3030000000	58
55.3330000000	58
55.3630000000	50
55.3930000000	51
55.4230000000	52
55.4530000000	39
55.4830000000	53
55.5130000000	62
55.5430000000	49
55.5730000000	52
55.6030000000	46
55.6330000000	59
55.6630000000	61
55.6930000000	60
55.7230000000	56
55.7530000000	46
55.7830000000	52
55.8130000000	54
55.8430000000	60
55.8730000000	51
55.9030000000	49
55.9330000000	49
55.9630000000	50
55.9930000000	62
56.0230000000	53
56.0530000000	51
56.0830000000	38
56.1130000000	59
56.1430000000	51
56.1730000000	50
56.2030000000	54
56.2330000000	57
56.2630000000	42
56.2930000000	42
56.3230000000	59
56.3530000000	44
56.3830000000	36
56.4130000000	42
56.4430000000	45
56.4730000000	55
56.5030000000	53
56.5330000000	50
56.5630000000	46
56.5930000000	45
56.6230000000	54
56.6530000000	39
56.6830000000	45
56.7130000000	57
56.7430000000	41
56.7730000000	49
56.8030000000	50
56.8330000000	43
56.8630000000	51
56.8930000000	46
56.9230000000	44
56.9530000000	51
56.9830000000	48
57.0130000000	46
57.0430000000	46
57.0730000000	58
57.1030000000	40
57.1330000000	48
57.1630000000	46
57.1930000000	55
57.2230000000	58
57.2530000000	51
57.2830000000	54
57.3130000000	47
57.3430000000	48
57.3730000000	52
57.4030000000	47
57.4330000000	46
57.4630000000	57
57.4930000000	37
57.5230000000	48
57.5530000000	48
57.5830000000	62
57.6130000000	42
57.6430000000	41
57.6730000000	54
57.7030000000	42
57.7330000000	48
57.7630000000	48
57.7930000000	50
57.8230000000	40
57.8530000000	49
57.8830000000	50
57.9130000000	41
57.9430000000	51
57.9730000000	46
58.0030000000	38
58.0330000000	47
58.0630000000	49
58.0930000000	45
58.1230000000	54
58.1530000000	52
58.1830000000	49
58.2130000000	38
58.2430000000	45
58.2730000000	54
58.3030000000	34
58.3330000000	46
58.3630000000	48
58.3930000000	48
58.4230000000	49
58.4530000000	38
58.4830000000	46
58.5130000000	42
58.5430000000	37
58.5730000000	42
58.6030000000	46
58.6330000000	40
58.6630000000	44
58.6930000000	44
58.7230000000	50
58.7530000000	45
58.7830000000	42
58.8130000000	52
58.8430000000	45
58.8730000000	48
58.9030000000	47
58.9330000000	49
58.9630000000	49
58.9930000000	45
59.0230000000	34
59.0530000000	48
59.0830000000	42
59.1130000000	42
59.1430000000	43
59.1730000000	46
59.2030000000	54
59.2330000000	55
59.2630000000	46
59.2930000000	46
59.3230000000	42
59.3530000000	54
59.3830000000	54
59.4130000000	45
59.4430000000	31
59.4730000000	53
59.5030000000	46
59.5330000000	42
59.5630000000	36
59.5930000000	45
59.6230000000	51
59.6530000000	39
59.6830000000	50
59.7130000000	47
59.7430000000	46
59.7730000000	45
59.8030000000	50
59.8330000000	41
59.8630000000	41
59.8930000000	50
59.9230000000	46
59.9530000000	50
59.9830000000	35
60.0130000000	52
60.0430000000	48
60.0730000000	40
60.1030000000	37
60.1330000000	46
60.1630000000	44
60.1930000000	43
60.2230000000	34
60.2530000000	39
60.2830000000	38
60.3130000000	46
60.3430000000	52
60.3730000000	53
60.4030000000	51
60.4330000000	40
60.4630000000	60
60.4930000000	53
60.5230000000	43
60.5530000000	46
60.5830000000	56
60.6130000000	44
60.6430000000	49
60.6730000000	48
60.7030000000	39
60.7330000000	39
60.7630000000	44
60.7930000000	39
60.8230000000	47
60.8530000000	36
60.8830000000	38
60.9130000000	42
60.9430000000	44
60.9730000000	57
61.0030000000	38
61.0330000000	48
61.0630000000	42
61.0930000000	39
61.1230000000	50
61.1530000000	41
61.1830000000	50
61.2130000000	43
61.2430000000	54
61.2730000000	45
61.3030000000	48
61.3330000000	40
61.3630000000	41
61.3930000000	40
61.4230000000	46
61.4530000000	33
61.4830000000	42
61.5130000000	47
61.5430000000	40
61.5730000000	62
61.6030000000	50
61.6330000000	52
61.6630000000	37
61.6930000000	34
61.7230000000	41
61.7530000000	49
61.7830000000	32
61.8130000000	41
61.8430000000	52
61.8730000000	35
61.9030000000	44
61.9330000000	33
61.9630000000	38
61.9930000000	40
62.0230000000	43
62.0530000000	33
62.0830000000	40
62.1130000000	39
62.1430000000	43
62.1730000000	52
62.2030000000	36
62.2330000000	41
62.2630000000	40
62.2930000000	35
62.3230000000	45
62.3530000000	46
62.3830000000	50
62.4130000000	37
62.4430000000	40
62.4730000000	42
62.5030000000	36
62.5330000000	41
62.5630000000	47
62.5930000000	35
62.6230000000	26
62.6530000000	41
62.6830000000	32
62.7130000000	41
62.7430000000	42
62.7730000000	49
62.8030000000	41
62.8330000000	32
62.8630000000	40
62.8930000000	44
62.9230000000	41
62.9530000000	37
62.9830000000	38
63.0130000000	43
63.0430000000	53
63.0730000000	41
63.1030000000	38
63.1330000000	34
63.1630000000	44
63.1930000000	52
63.2230000000	47
63.2530000000	36
63.2830000000	34
63.3130000000	41
63.3430000000	52
63.3730000000	45
63.4030000000	25
63.4330000000	36
63.4630000000	50
63.4930000000	40
63.5230000000	51
63.5530000000	57
63.5830000000	51
63.6130000000	40
63.6430000000	57
63.6730000000	41
63.7030000000	36
63.7330000000	32
63.7630000000	42
63.7930000000	51
63.8230000000	50
63.8530000000	32
63.8830000000	39
63.9130000000	53
63.9430000000	44
63.9730000000	41
64.0030000000	33
64.0330000000	43
64.0630000000	33
64.0930000000	44
64.1230000000	46
64.1530000000	33
64.1830000000	45
64.2130000000	50
64.2430000000	35
64.2730000000	30
64.3030000000	57
64.3330000000	41
64.3630000000	43
64.3930000000	41
64.4230000000	47
64.4530000000	43
64.4830000000	42
64.5130000000	37
64.5430000000	37
64.5730000000	50
64.6030000000	32
64.6330000000	36
64.6630000000	43
64.6930000000	37
64.7230000000	48
64.7530000000	34
64.7830000000	39
64.8130000000	39
64.8430000000	52
64.8730000000	47
64.9030000000	38
64.9330000000	36
64.9630000000	39
64.9930000000	35
65.0230000000	35
65.0530000000	46
65.0830000000	38
65.1130000000	45
65.1430000000	45
65.1730000000	38
65.2030000000	37
65.2330000000	45
65.2630000000	38
65.2930000000	42
65.3230000000	35
65.3530000000	36
65.3830000000	35
65.4130000000	36
65.4430000000	36
65.4730000000	38
65.5030000000	24
65.5330000000	36
65.5630000000	32
65.5930000000	51
65.6230000000	43
65.6530000000	38
65.6830000000	52
65.7130000000	36
65.7430000000	38
65.7730000000	34
65.8030000000	28
65.8330000000	38
65.8630000000	44
65.8930000000	44
65.9230000000	47
65.9530000000	43
65.9830000000	41
66.0130000000	36
66.0430000000	50
66.0730000000	37
66.1030000000	49
66.1330000000	34
66.1630000000	43
66.1930000000	43
66.2230000000	37
66.2530000000	42
66.2830000000	43
66.3130000000	40
66.3430000000	36
66.3730000000	44
66.4030000000	39
66.4330000000	49
66.4630000000	40
66.4930000000	30
66.5230000000	36
66.5530000000	47
66.5830000000	45
66.6130000000	43
66.6430000000	51
66.6730000000	37
66.7030000000	37
66.7330000000	37
66.7630000000	45
66.7930000000	33
66.8230000000	38
66.8530000000	34
66.8830000000	36
66.9130000000	40
66.9430000000	38
66.9730000000	34
67.0030000000	38
67.0330000000	43
67.0630000000	40
67.0930000000	33
67.1230000000	35
67.1530000000	33
67.1830000000	38
67.2130000000	42
67.2430000000	37
67.2730000000	51
67.3030000000	41
67.3330000000	37
67.3630000000	39
67.3930000000	44
67.4230000000	41
67.4530000000	42
67.4830000000	34
67.5130000000	40
67.5430000000	37
67.5730000000	56
67.6030000000	44
67.6330000000	52
67.6630000000	41
67.6930000000	37
67.7230000000	44
67.7530000000	41
67.7830000000	42
67.8130000000	46
67.8430000000	41
67.8730000000	40
67.9030000000	48
67.9330000000	42
67.9630000000	39
67.9930000000	35
68.0230000000	50
68.0530000000	39
68.0830000000	44
68.1130000000	42
68.1430000000	41
68.1730000000	40
68.2030000000	46
68.2330000000	38
68.2630000000	36
68.2930000000	37
68.3230000000	31
68.3530000000	39
68.3830000000	39
68.4130000000	33
68.4430000000	36
68.4730000000	45
68.5030000000	32
68.5330000000	31
68.5630000000	29
68.5930000000	29
68.6230000000	36
68.6530000000	36
68.6830000000	50
68.7130000000	34
68.7430000000	41
68.7730000000	42
68.8030000000	41
68.8330000000	44
68.8630000000	36
68.8930000000	39
68.9230000000	44
68.9530000000	37
68.9830000000	29
69.0130000000	44
69.0430000000	40
69.0730000000	53
69.1030000000	40
69.1330000000	40
69.1630000000	32
69.1930000000	39
69.2230000000	40
69.2530000000	39
69.2830000000	40
69.3130000000	44
69.3430000000	39
69.3730000000	40
69.4030000000	41
69.4330000000	48
69.4630000000	42
69.4930000000	51
69.5230000000	32
69.5530000000	30
69.5830000000	31
69.6130000000	39
69.6430000000	37
69.6730000000	41
69.7030000000	41
69.7330000000	35
69.7630000000	49
69.7930000000	36
69.8230000000	32
69.8530000000	30
69.8830000000	37
69.9130000000	51
69.9430000000	42
69.9730000000	54
70.0030000000	44
70.0330000000	33
70.0630000000	38
70.0930000000	38
70.1230000000	38
70.1530000000	45
70.1830000000	50
70.2130000000	40
70.2430000000	46
70.2730000000	40
70.3030000000	45
70.3330000000	42
70.3630000000	41
70.3930000000	50
70.4230000000	41
70.4530000000	41
70.4830000000	42
70.5130000000	35
70.5430000000	31
70.5730000000	29
70.6030000000	49
70.6330000000	44
70.6630000000	34
70.6930000000	30
70.7230000000	37
70.7530000000	28
70.7830000000	40
70.8130000000	38
70.8430000000	42
70.8730000000	36
70.9030000000	32
70.9330000000	40
70.9630000000	39
70.9930000000	34
71.0230000000	42
71.0530000000	47
71.0830000000	39
71.1130000000	38
71.1430000000	39
71.1730000000	35
71.2030000000	39
71.2330000000	47
71.2630000000	56
71.2930000000	44
71.3230000000	40
71.3530000000	41
71.3830000000	27
71.4130000000	36
71.4430000000	35
71.4730000000	34
71.5030000000	38
71.5330000000	51
71.5630000000	39
71.5930000000	44
71.6230000000	33
71.6530000000	42
71.6830000000	45
71.7130000000	41
71.7430000000	44
71.7730000000	35
71.8030000000	35
71.8330000000	38
71.8630000000	44
71.8930000000	36
71.9230000000	37
71.9530000000	36
71.9830000000	42
72.0130000000	32
72.0430000000	47
72.0730000000	40
72.1030000000	32
72.1330000000	36
72.1630000000	43
72.1930000000	53
72.2230000000	35
72.2530000000	38
72.2830000000	34
72.3130000000	40
72.3430000000	38
72.3730000000	33
72.4030000000	39
72.4330000000	40
72.4630000000	39
72.4930000000	42
72.5230000000	43
72.5530000000	34
72.5830000000	26
72.6130000000	29
72.6430000000	43
72.6730000000	37
72.7030000000	36
72.7330000000	32
72.7630000000	41
72.7930000000	31
72.8230000000	42
72.8530000000	36
72.8830000000	35
72.9130000000	50
72.9430000000	40
72.9730000000	48
73.0030000000	37
73.0330000000	50
73.0630000000	34
73.0930000000	53
73.1230000000	43
73.1530000000	37
73.1830000000	36
73.2130000000	41
73.2430000000	47
73.2730000000	40
73.3030000000	41
73.3330000000	40
73.3630000000	39
73.3930000000	34
73.4230000000	54
73.4530000000	37
73.4830000000	33
73.5130000000	40
73.5430000000	36
73.5730000000	35
73.6030000000	48
73.6330000000	46
73.6630000000	42
73.6930000000	41
73.7230000000	40
73.7530000000	47
73.7830000000	31
73.8130000000	41
73.8430000000	41
73.8730000000	42
73.9030000000	39
73.9330000000	37
73.9630000000	38
73.9930000000	29
74.0230000000	37
74.0530000000	43
74.0830000000	44
74.1130000000	36
74.1430000000	42
74.1730000000	26
74.2030000000	43
74.2330000000	37
74.2630000000	39
74.2930000000	33
74.3230000000	41
74.3530000000	38
74.3830000000	57
74.4130000000	35
74.4430000000	35
74.4730000000	39
74.5030000000	34
74.5330000000	38
74.5630000000	40
74.5930000000	29
74.6230000000	36
74.6530000000	36
74.6830000000	28
74.7130000000	36
74.7430000000	43
74.7730000000	33
74.8030000000	41
74.8330000000	44
74.8630000000	35
74.8930000000	38
74.9230000000	51
74.9530000000	35
74.9830000000	35
75.0130000000	32
75.0430000000	40
75.0730000000	38
75.1030000000	36
75.1330000000	29
75.1630000000	43
75.1930000000	44
75.2230000000	54
75.2530000000	48
75.2830000000	41
75.3130000000	37
75.3430000000	40
75.3730000000	40
75.4030000000	37
75.4330000000	34
75.4630000000	34
75.4930000000	37
75.5230000000	40
75.5530000000	45
75.5830000000	42
75.6130000000	32
75.6430000000	41
75.6730000000	43
75.7030000000	40
75.7330000000	34
75.7630000000	24
75.7930000000	41
75.8230000000	45
75.8530000000	32
75.8830000000	35
75.9130000000	43
75.9430000000	35
75.9730000000	42
76.0030000000	31
76.0330000000	33
76.0630000000	45
76.0930000000	43
76.1230000000	36
76.1530000000	37
76.1830000000	40
76.2130000000	40
76.2430000000	37
76.2730000000	39
76.3030000000	40
76.3330000000	42
76.3630000000	19
76.3930000000	40
76.4230000000	35
76.4530000000	39
76.4830000000	34
76.5130000000	36
76.5430000000	34
76.5730000000	32
76.6030000000	43
76.6330000000	36
76.6630000000	29
76.6930000000	33
76.7230000000	34
76.7530000000	34
76.7830000000	34
76.8130000000	42
76.8430000000	30
76.8730000000	37
76.9030000000	35
76.9330000000	32
76.9630000000	24
76.9930000000	40
77.0230000000	28
77.0530000000	35
77.0830000000	40
77.1130000000	38
77.1430000000	32
77.1730000000	34
77.2030000000	41
77.2330000000	35
77.2630000000	42
77.2930000000	32
77.3230000000	34
77.3530000000	33
77.3830000000	36
77.4130000000	38
77.4430000000	38
77.4730000000	30
77.5030000000	23
77.5330000000	38
77.5630000000	33
77.5930000000	37
77.6230000000	40
77.6530000000	51
77.6830000000	36
77.7130000000	24
77.7430000000	39
77.7730000000	35
77.8030000000	36
77.8330000000	37
77.8630000000	41
77.8930000000	43
77.9230000000	38
77.9530000000	43
77.9830000000	36
78.0130000000	34
78.0430000000	33
78.0730000000	31
78.1030000000	34
78.1330000000	33
78.1630000000	37
78.1930000000	38
78.2230000000	31
78.2530000000	37
78.2830000000	42
78.3130000000	28
78.3430000000	30
78.3730000000	37
78.4030000000	35
78.4330000000	38
78.4630000000	34
78.4930000000	30
78.5230000000	30
78.5530000000	36
78.5830000000	39
78.6130000000	45
78.6430000000	35
78.6730000000	27
78.7030000000	45
78.7330000000	45
78.7630000000	36
78.7930000000	34
78.8230000000	44
78.8530000000	44
78.8830000000	34
78.9130000000	37
78.9430000000	40
78.9730000000	35
79.0030000000	32
79.0330000000	36
79.0630000000	35
79.0930000000	38
79.1230000000	34
79.1530000000	31
79.1830000000	27
79.2130000000	36
79.2430000000	34
79.2730000000	44
79.3030000000	42
79.3330000000	37
79.3630000000	30
79.3930000000	36
79.4230000000	34
79.4530000000	39
79.4830000000	38
79.5130000000	27
79.5430000000	46
79.5730000000	34
79.6030000000	53
79.6330000000	46
79.6630000000	24
79.6930000000	44
79.7230000000	32
79.7530000000	37
79.7830000000	38
79.8130000000	47
79.8430000000	30
79.8730000000	32
79.9030000000	41
79.9330000000	42
79.9630000000	39
79.9930000000	28
80.0230000000	35
80.0530000000	47
80.0830000000	31
80.1130000000	27
80.1430000000	32
80.1730000000	44
80.2030000000	33
80.2330000000	27
80.2630000000	41
80.2930000000	41
80.3230000000	32
80.3530000000	28
80.3830000000	30
80.4130000000	35
80.4430000000	42
80.4730000000	42
80.5030000000	43
80.5330000000	36
80.5630000000	32
80.5930000000	36
80.6230000000	36
80.6530000000	28
80.6830000000	35
80.7130000000	32
80.7430000000	37
80.7730000000	33
80.8030000000	37
80.8330000000	31
80.8630000000	31
80.8930000000	42
80.9230000000	32
80.9530000000	34
80.9830000000	26
81.0130000000	30
81.0430000000	33
81.0730000000	32
81.1030000000	28
81.1330000000	48
81.1630000000	24
81.1930000000	42
81.2230000000	26
81.2530000000	41
81.2830000000	44
81.3130000000	30
81.3430000000	45
81.3730000000	31
81.4030000000	35
81.4330000000	28
81.4630000000	29
81.4930000000	41
81.5230000000	34
81.5530000000	34
81.5830000000	35
81.6130000000	35
81.6430000000	28
81.6730000000	25
81.7030000000	47
81.7330000000	31
81.7630000000	29
81.7930000000	38
81.8230000000	39
81.8530000000	40
81.8830000000	33
81.9130000000	41
81.9430000000	39
81.9730000000	40
82.0030000000	40
82.0330000000	37
82.0630000000	36
82.0930000000	31
82.1230000000	39
82.1530000000	42
82.1830000000	37
82.2130000000	28
82.2430000000	26
82.2730000000	29
82.3030000000	37
82.3330000000	35
82.3630000000	29
82.3930000000	32
82.4230000000	33
82.4530000000	31
82.4830000000	30
82.5130000000	32
82.5430000000	37
82.5730000000	32
82.6030000000	35
82.6330000000	35
82.6630000000	40
82.6930000000	38
82.7230000000	30
82.7530000000	48
82.7830000000	36
82.8130000000	32
82.8430000000	38
82.8730000000	40
82.9030000000	41
82.9330000000	28
82.9630000000	32
82.9930000000	35
83.0230000000	36
83.0530000000	31
83.0830000000	23
83.1130000000	32
83.1430000000	30
83.1730000000	36
83.2030000000	30
83.2330000000	37
83.2630000000	46
83.2930000000	39
83.3230000000	33
83.3530000000	39
83.3830000000	38
83.4130000000	43
83.4430000000	33
83.4730000000	18
83.5030000000	35
83.5330000000	34
83.5630000000	36
83.5930000000	30
83.6230000000	37
83.6530000000	33
83.6830000000	31
83.7130000000	34
83.7430000000	36
83.7730000000	35
83.8030000000	40
83.8330000000	37
83.8630000000	46
83.8930000000	35
83.9230000000	36
83.9530000000	30
83.9830000000	31
84.0130000000	33
84.0430000000	43
84.0730000000	29
84.1030000000	25
84.1330000000	33
84.1630000000	43
84.1930000000	44
84.2230000000	30
84.2530000000	32
84.2830000000	44
84.3130000000	38
84.3430000000	46
84.3730000000	40
84.4030000000	32
84.4330000000	36
84.4630000000	43
84.4930000000	40
84.5230000000	38
84.5530000000	38
84.5830000000	24
84.6130000000	31
84.6430000000	30
84.6730000000	30
84.7030000000	32
84.7330000000	36
84.7630000000	35
84.7930000000	29
84.8230000000	37
84.8530000000	32
84.8830000000	50
84.9130000000	42
84.9430000000	30
84.9730000000	40
85.0030000000	28
85.0330000000	30
85.0630000000	48
85.0930000000	27
85.1230000000	32
85.1530000000	34
85.1830000000	36
85.2130000000	26
85.2430000000	42
85.2730000000	32
85.3030000000	31
85.3330000000	32
85.3630000000	43
85.3930000000	40
85.4230000000	30
85.4530000000	28
85.4830000000	35
85.5130000000	29
85.5430000000	26
85.5730000000	38
85.6030000000	34
85.6330000000	41
85.6630000000	35
85.6930000000	32
85.7230000000	31
85.7530000000	26
85.7830000000	39
85.8130000000	37
85.8430000000	31
85.8730000000	33
85.9030000000	35
85.9330000000	35
85.9630000000	30
85.9930000000	27
86.0230000000	32
86.0530000000	36
86.0830000000	30
86.1130000000	28
86.1430000000	31
86.1730000000	27
86.2030000000	30
86.2330000000	32
86.2630000000	35
86.2930000000	28
86.3230000000	40
86.3530000000	35
86.3830000000	25
86.4130000000	24
86.4430000000	31
86.4730000000	34
86.5030000000	34
86.5330000000	31
86.5630000000	29
86.5930000000	30
86.6230000000	33
86.6530000000	27
86.6830000000	36
86.7130000000	34
86.7430000000	26
86.7730000000	28
86.8030000000	31
86.8330000000	41
86.8630000000	37
86.8930000000	35
86.9230000000	42
86.9530000000	35
86.9830000000	29
87.0130000000	33
87.0430000000	30
87.0730000000	25
87.1030000000	39
87.1330000000	42
87.1630000000	35
87.1930000000	35
87.2230000000	33
87.2530000000	39
87.2830000000	43
87.3130000000	39
87.3430000000	31
87.3730000000	28
87.4030000000	30
87.4330000000	30
87.4630000000	36
87.4930000000	29
87.5230000000	31
87.5530000000	25
87.5830000000	37
87.6130000000	34
87.6430000000	36
87.6730000000	34
87.7030000000	32
87.7330000000	50
87.7630000000	37
87.7930000000	31
87.8230000000	47
87.8530000000	30
87.8830000000	31
87.9130000000	39
87.9430000000	37
87.9730000000	35
88.0030000000	28
88.0330000000	27
88.0630000000	40
88.0930000000	45
88.1230000000	31
88.1530000000	37
88.1830000000	39
88.2130000000	40
88.2430000000	43
88.2730000000	27
88.3030000000	40
88.3330000000	32
88.3630000000	41
88.3930000000	34
88.4230000000	30
88.4530000000	46
88.4830000000	29
88.5130000000	37
88.5430000000	25
88.5730000000	30
88.6030000000	30
88.6330000000	28
88.6630000000	43
88.6930000000	34
88.7230000000	30
88.7530000000	35
88.7830000000	32
88.8130000000	40
88.8430000000	23
88.8730000000	31
88.9030000000	37
88.9330000000	30
88.9630000000	38
88.9930000000	31
89.0230000000	34
89.0530000000	33
89.0830000000	30
89.1130000000	32
89.1430000000	37
89.1730000000	35
89.2030000000	30
89.2330000000	33
89.2630000000	43
89.2930000000	30
89.3230000000	33
89.3530000000	33
89.3830000000	32
89.4130000000	31
89.4430000000	33
89.4730000000	37
89.5030000000	28
89.5330000000	35
89.5630000000	43
89.5930000000	42
89.6230000000	38
89.6530000000	33
89.6830000000	39
89.7130000000	38
89.7430000000	28
89.7730000000	28
89.8030000000	33
89.8330000000	34
89.8630000000	30
89.8930000000	29
89.9230000000	32
89.9530000000	33
89.9830000000	38
90.0130000000	39
90.0430000000	31
90.0730000000	37
90.1030000000	47
90.1330000000	38
90.1630000000	30
90.1930000000	29
90.2230000000	33
90.2530000000	42
90.2830000000	31
90.3130000000	31
90.3430000000	49
90.3730000000	26
90.4030000000	35
90.4330000000	43
90.4630000000	38
90.4930000000	37
90.5230000000	30
90.5530000000	26
90.5830000000	35
90.6130000000	27
90.6430000000	37
90.6730000000	39
90.7030000000	34
90.7330000000	29
90.7630000000	35
90.7930000000	34
90.8230000000	31
90.8530000000	38
90.8830000000	37
90.9130000000	33
90.9430000000	41
90.9730000000	41
91.0030000000	43
91.0330000000	23
91.0630000000	45
91.0930000000	39
91.1230000000	34
91.1530000000	43
91.1830000000	34
91.2130000000	33
91.2430000000	30
91.2730000000	38
91.3030000000	35
91.3330000000	27
91.3630000000	32
91.3930000000	35
91.4230000000	35
91.4530000000	40
91.4830000000	38
91.5130000000	40
91.5430000000	35
91.5730000000	34
91.6030000000	37
91.6330000000	39
91.6630000000	45
91.6930000000	40
91.7230000000	24
91.7530000000	31
91.7830000000	38
91.8130000000	41
91.8430000000	47
91.8730000000	44
91.9030000000	44
91.9330000000	35
91.9630000000	49
91.9930000000	32
92.0230000000	25
92.0530000000	26
92.0830000000	33
92.1130000000	37
92.1430000000	43
92.1730000000	37
92.2030000000	43
92.2330000000	30
92.2630000000	32
92.2930000000	35
92.3230000000	26
92.3530000000	41
92.3830000000	38
92.4130000000	36
92.4430000000	32
92.4730000000	36
92.5030000000	30
92.5330000000	30
92.5630000000	32
92.5930000000	36
92.6230000000	39
92.6530000000	33
92.6830000000	34
92.7130000000	26
92.7430000000	29
92.7730000000	41
92.8030000000	36
92.8330000000	36
92.8630000000	33
92.8930000000	39
92.9230000000	37
92.9530000000	34
92.9830000000	32
93.0130000000	31
93.0430000000	33
93.0730000000	36
93.1030000000	33
93.1330000000	38
93.1630000000	43
93.1930000000	41
93.2230000000	37
93.2530000000	31
93.2830000000	34
93.3130000000	40
93.3430000000	22
93.3730000000	36
93.4030000000	30
93.4330000000	39
93.4630000000	31
93.4930000000	31
93.5230000000	29
93.5530000000	34
93.5830000000	41
93.6130000000	34
93.6430000000	24
93.6730000000	42
93.7030000000	38
93.7330000000	30
93.7630000000	37
93.7930000000	45
93.8230000000	37
93.8530000000	27
93.8830000000	25
93.9130000000	34
93.9430000000	40
93.9730000000	39
94.0030000000	36
94.0330000000	41
94.0630000000	35
94.0930000000	35
94.1230000000	37
94.1530000000	39
94.1830000000	39
94.2130000000	42
94.2430000000	40
94.2730000000	32
94.3030000000	30
94.3330000000	29
94.3630000000	27
94.3930000000	35
94.4230000000	40
94.4530000000	32
94.4830000000	31
94.5130000000	35
94.5430000000	33
94.5730000000	29
94.6030000000	40
94.6330000000	38
94.6630000000	24
94.6930000000	31
94.7230000000	38
94.7530000000	26
94.7830000000	37
94.8130000000	28
94.8430000000	33
94.8730000000	28
94.9030000000	39
94.9330000000	35
94.9630000000	35
94.9930000000	28
95.0230000000	36
95.0530000000	40
95.0830000000	41
95.1130000000	30
95.1430000000	39
95.1730000000	29
95.2030000000	37
95.2330000000	35
95.2630000000	32
95.2930000000	32
95.3230000000	30
95.3530000000	46
95.3830000000	24
95.4130000000	36
95.4430000000	37
95.4730000000	30
95.5030000000	48
95.5330000000	33
95.5630000000	38
95.5930000000	34
95.6230000000	39
95.6530000000	30
95.6830000000	22
95.7130000000	36
95.7430000000	33
95.7730000000	31
95.8030000000	29
95.8330000000	38
95.8630000000	41
95.8930000000	37
95.9230000000	25
95.9530000000	39
95.9830000000	39
96.0130000000	28
96.0430000000	27
96.0730000000	37
96.1030000000	41
96.1330000000	31
96.1630000000	36
96.1930000000	32
96.2230000000	41
96.2530000000	33
96.2830000000	42
96.3130000000	42
96.3430000000	31
96.3730000000	38
96.4030000000	33
96.4330000000	35
96.4630000000	40
96.4930000000	35
96.5230000000	36
96.5530000000	33
96.5830000000	25
96.6130000000	28
96.6430000000	41
96.6730000000	29
96.7030000000	40
96.7330000000	32
96.7630000000	36
96.7930000000	35
96.8230000000	35
96.8530000000	31
96.8830000000	38
96.9130000000	46
96.9430000000	34
96.9730000000	27
97.0030000000	37
97.0330000000	30
97.0630000000	40
97.0930000000	54
97.1230000000	31
97.1530000000	44
97.1830000000	38
97.2130000000	44
97.2430000000	42
97.2730000000	37
97.3030000000	33
97.3330000000	27
97.3630000000	21
97.3930000000	27
97.4230000000	41
97.4530000000	47
97.4830000000	39
97.5130000000	33
97.5430000000	44
97.5730000000	43
97.6030000000	25
97.6330000000	32
97.6630000000	36
97.6930000000	27
97.7230000000	30
97.7530000000	36
97.7830000000	37
97.8130000000	30
97.8430000000	45
97.8730000000	40
97.9030000000	45
97.9330000000	30
97.9630000000	30
97.9930000000	27
98.0230000000	31
98.0530000000	32
98.0830000000	36
98.1130000000	29
98.1430000000	40
98.1730000000	34
98.2030000000	34
98.2330000000	34
98.2630000000	34
98.2930000000	34
98.3230000000	35
98.3530000000	38
98.3830000000	42
98.4130000000	39
98.4430000000	38
98.4730000000	36
98.5030000000	29
98.5330000000	46
98.5630000000	37
98.5930000000	34
98.6230000000	29
98.6530000000	39
98.6830000000	47
98.7130000000	44
98.7430000000	40
98.7730000000	30
98.8030000000	35
98.8330000000	45
98.8630000000	32
98.8930000000	37
98.9230000000	39
98.9530000000	41
98.9830000000	28
99.0130000000	36
99.0430000000	41
99.0730000000	36
99.1030000000	33
99.1330000000	30
99.1630000000	36
99.1930000000	39
99.2230000000	40
99.2530000000	34
99.2830000000	33
99.3130000000	39
99.3430000000	34
99.3730000000	36
99.4030000000	30
99.4330000000	34
99.4630000000	32
99.4930000000	38
99.5230000000	38
99.5530000000	38
99.5830000000	34
99.6130000000	39
99.6430000000	31
99.6730000000	33
99.7030000000	39
99.7330000000	40
99.7630000000	40
99.7930000000	23
99.8230000000	34
99.8530000000	36
99.8830000000	43
99.9130000000	26
99.9430000000	37
99.9730000000	35
100.0030000000	40
100.0330000000	39
100.0630000000	32
100.0930000000	32
100.1230000000	30
100.1530000000	29
100.1830000000	27
100.2130000000	23
100.2430000000	30
100.2730000000	39
100.3030000000	22
100.3330000000	34
100.3630000000	29
100.3930000000	39
100.4230000000	37
100.4530000000	39
100.4830000000	30
100.5130000000	23
100.5430000000	32
100.5730000000	39
100.6030000000	38
100.6330000000	28
100.6630000000	29
100.6930000000	31
100.7230000000	41
100.7530000000	36
100.7830000000	41
100.8130000000	31
100.8430000000	33
100.8730000000	36
100.9030000000	41
100.9330000000	32
100.9630000000	33
100.9930000000	26
101.0230000000	43
101.0530000000	38
101.0830000000	39
101.1130000000	25
101.1430000000	46
101.1730000000	29
101.2030000000	38
101.2330000000	37
101.2630000000	34
101.2930000000	29
101.3230000000	28
101.3530000000	33
101.3830000000	25
101.4130000000	35
101.4430000000	30
101.4730000000	28
101.5030000000	36
101.5330000000	33
101.5630000000	26
101.5930000000	28
101.6230000000	33
101.6530000000	34
101.6830000000	39
101.7130000000	40
101.7430000000	33
101.7730000000	32
101.8030000000	35
101.8330000000	22
101.8630000000	34
101.8930000000	26
101.9230000000	38
101.9530000000	35
101.9830000000	32
102.0130000000	41
102.0430000000	43
102.0730000000	37
102.1030000000	39
102.1330000000	48
102.1630000000	48
102.1930000000	45
102.2230000000	36
102.2530000000	27
102.2830000000	34
102.3130000000	36
102.3430000000	45
102.3730000000	35
102.4030000000	27
102.4330000000	39
102.4630000000	44
102.4930000000	44
102.5230000000	43
102.5530000000	38
102.5830000000	42
102.6130000000	36
102.6430000000	22
102.6730000000	39
102.7030000000	35
102.7330000000	33
102.7630000000	29
102.7930000000	37
102.8230000000	33
102.8530000000	22
102.8830000000	29
102.9130000000	36
102.9430000000	34
102.9730000000	35
103.0030000000	35
103.0330000000	35
103.0630000000	27
103.0930000000	34
103.1230000000	44
103.1530000000	35
103.1830000000	34
103.2130000000	41
103.2430000000	36
103.2730000000	35
103.3030000000	39
103.3330000000	29
103.3630000000	23
103.3930000000	31
103.4230000000	31
103.4530000000	32
103.4830000000	30
103.5130000000	22
103.5430000000	36
103.5730000000	30
103.6030000000	33
103.6330000000	26
103.6630000000	32
103.6930000000	30
103.7230000000	32
103.7530000000	31
103.7830000000	30
103.8130000000	39
103.8430000000	34
103.8730000000	24
103.9030000000	36
103.9330000000	31
103.9630000000	28
103.9930000000	37
104.0230000000	34
104.0530000000	33
104.0830000000	27
104.1130000000	36
104.1430000000	35
104.1730000000	47
104.2030000000	37
104.2330000000	35
104.2630000000	32
104.2930000000	36
104.3230000000	40
104.3530000000	30
104.3830000000	37
104.4130000000	38
104.4430000000	34
104.4730000000	31
104.5030000000	40
104.5330000000	18
104.5630000000	29
104.5930000000	26
104.6230000000	24
104.6530000000	39
104.6830000000	30
104.7130000000	25
104.7430000000	36
104.7730000000	32
104.8030000000	33
104.8330000000	34
104.8630000000	34
104.8930000000	33
104.9230000000	34
104.9530000000	34
104.9830000000	27
105.0130000000	36
105.0430000000	41
105.0730000000	35
105.1030000000	30
105.1330000000	25
105.1630000000	27
105.1930000000	32
105.2230000000	35
105.2530000000	39
105.2830000000	30
105.3130000000	41
105.3430000000	42
105.3730000000	30
105.4030000000	28
105.4330000000	36
105.4630000000	36
105.4930000000	40
105.5230000000	30
105.5530000000	37
105.5830000000	32
105.6130000000	29
105.6430000000	33
105.6730000000	40
105.7030000000	31
105.7330000000	29
105.7630000000	26
105.7930000000	27
105.8230000000	28
105.8530000000	40
105.8830000000	26
105.9130000000	34
105.9430000000	35
105.9730000000	33
106.0030000000	29
106.0330000000	33
106.0630000000	26
106.0930000000	31
106.1230000000	47
106.1530000000	31
106.1830000000	30
106.2130000000	25
106.2430000000	29
106.2730000000	39
106.3030000000	28
106.3330000000	28
106.3630000000	29
106.3930000000	48
106.4230000000	36
106.4530000000	33
106.4830000000	34
106.5130000000	35
106.5430000000	30
106.5730000000	36
106.6030000000	29
106.6330000000	38
106.6630000000	36
106.6930000000	37
106.7230000000	27
106.7530000000	26
106.7830000000	28
106.8130000000	44
106.8430000000	33
106.8730000000	27
106.9030000000	39
106.9330000000	23
106.9630000000	28
106.9930000000	39
107.0230000000	37
107.0530000000	35
107.0830000000	37
107.1130000000	34
107.1430000000	22
107.1730000000	29
107.2030000000	38
107.2330000000	40
107.2630000000	26
107.2930000000	30
107.3230000000	34
107.3530000000	37
107.3830000000	39
107.4130000000	31
107.4430000000	32
107.4730000000	35
107.5030000000	34
107.5330000000	38
107.5630000000	36
107.5930000000	29
107.6230000000	28
107.6530000000	30
107.6830000000	38
107.7130000000	41
107.7430000000	36
107.7730000000	34
107.8030000000	42
107.8330000000	39
107.8630000000	32
107.8930000000	34
107.9230000000	27
107.9530000000	30
107.9830000000	46
108.0130000000	33
108.0430000000	31
108.0730000000	34
108.1030000000	35
108.1330000000	27
108.1630000000	23
108.1930000000	32
108.2230000000	31
108.2530000000	26
108.2830000000	31
108.3130000000	41
108.3430000000	37
108.3730000000	32
108.4030000000	38
108.4330000000	21
108.4630000000	34
108.4930000000	44
108.5230000000	34
108.5530000000	22
108.5830000000	28
108.6130000000	33
108.6430000000	37
108.6730000000	29
108.7030000000	33
108.7330000000	28
108.7630000000	30
108.7930000000	26
108.8230000000	34
108.8530000000	29
108.8830000000	32
108.9130000000	46
108.9430000000	27
108.9730000000	42
109.0030000000	45
109.0330000000	39
109.0630000000	31
109.0930000000	26
109.1230000000	39
109.1530000000	26
109.1830000000	38
109.2130000000	39
109.2430000000	27
109.2730000000	42
109.3030000000	33
109.3330000000	24
109.3630000000	32
109.3930000000	37
109.4230000000	32
109.4530000000	26
109.4830000000	41
109.5130000000	29
109.5430000000	41
109.5730000000	47
109.6030000000	28
109.6330000000	23
109.6630000000	36
109.6930000000	37
109.7230000000	22
109.7530000000	31
109.7830000000	35
109.8130000000	32
109.8430000000	29
109.8730000000	30
109.9030000000	26
109.9330000000	37
109.9630000000	36
109.9930000000	32
110.0230000000	29
110.0530000000	31
110.0830000000	37
110.1130000000	38
110.1430000000	22
110.1730000000	38
110.2030000000	31
110.2330000000	42
110.2630000000	39
110.2930000000	28
110.3230000000	27
110.3530000000	30
110.3830000000	37
110.4130000000	39
110.4430000000	25
110.4730000000	35
110.5030000000	30
110.5330000000	32
110.5630000000	29
110.5930000000	29
110.6230000000	32
110.6530000000	35
110.6830000000	25
110.7130000000	38
110.7430000000	34
110.7730000000	33
110.8030000000	37
110.8330000000	33
110.8630000000	31
110.8930000000	32
110.9230000000	28
110.9530000000	28
110.9830000000	28
111.0130000000	31
111.0430000000	31
111.0730000000	37
111.1030000000	41
111.1330000000	42
111.1630000000	36
111.1930000000	21
111.2230000000	23
111.2530000000	32
111.2830000000	24
111.3130000000	37
111.3430000000	28
111.3730000000	32
111.4030000000	33
111.4330000000	40
111.4630000000	34
111.4930000000	39
111.5230000000	33
111.5530000000	48
111.5830000000	31
111.6130000000	37
111.6430000000	40
111.6730000000	33
111.7030000000	29
111.7330000000	30
111.7630000000	46
111.7930000000	35
111.8230000000	36
111.8530000000	32
111.8830000000	40
111.9130000000	42
111.9430000000	39
111.9730000000	38
112.0030000000	25
112.0330000000	31
112.0630000000	30
112.0930000000	38
112.1230000000	33
112.1530000000	34
112.1830000000	31
112.2130000000	47
112.2430000000	35
112.2730000000	46
112.3030000000	42
112.3330000000	33
112.3630000000	32
112.3930000000	30
112.4230000000	25
112.4530000000	38
112.4830000000	40
112.5130000000	37
112.5430000000	31
112.5730000000	41
112.6030000000	29
112.6330000000	30
112.6630000000	41
112.6930000000	42
112.7230000000	37
112.7530000000	33
112.7830000000	32
112.8130000000	33
112.8430000000	33
112.8730000000	46
112.9030000000	35
112.9330000000	33
112.9630000000	46
112.9930000000	40
113.0230000000	25
113.0530000000	37
113.0830000000	32
113.1130000000	39
113.1430000000	45
113.1730000000	42
113.2030000000	25
113.2330000000	28
113.2630000000	35
113.2930000000	35
113.3230000000	31
113.3530000000	33
113.3830000000	30
113.4130000000	22
113.4430000000	25
113.4730000000	36
113.5030000000	33
113.5330000000	35
113.5630000000	38
113.5930000000	35
113.6230000000	29
113.6530000000	39
113.6830000000	27
113.7130000000	33
113.7430000000	41
113.7730000000	33
113.8030000000	42
113.8330000000	40
113.8630000000	28
113.8930000000	25
113.9230000000	36
113.9530000000	39
113.9830000000	31
114.0130000000	31
114.0430000000	34
114.0730000000	26
114.1030000000	37
114.1330000000	41
114.1630000000	47
114.1930000000	35
114.2230000000	38
114.2530000000	37
114.2830000000	27
114.3130000000	24
114.3430000000	29
114.3730000000	38
114.4030000000	35
114.4330000000	39
114.4630000000	1
114.4930000000	1
114.5230000000	1
114.5530000000	1
114.5830000000	1
