0.3130000000	2
0.3430000000	1
0.3730000000	1
0.4030000000	1
0.4330000000	2
0.4630000000	1
0.4930000000	1
0.5230000000	1
0.5530000000	1
0.5830000000	1
0.6130000000	1
0.6430000000	1
0.6730000000	2
0.7030000000	1
0.7330000000	2
0.7630000000	1
0.7930000000	2
0.8230000000	1
0.8530000000	1
0.8830000000	1
0.9130000000	1
0.9430000000	1
0.9730000000	1
1.0030000000	1
1.0330000000	1
1.0630000000	1
1.0930000000	1
1.1230000000	1
1.1530000000	1
1.1830000000	1
1.2130000000	2
1.2430000000	1
1.2730000000	2
1.3030000000	1
1.3330000000	1
1.3630000000	1
1.3930000000	1
1.4230000000	1
1.4530000000	1
1.4830000000	1
1.5130000000	1
1.5430000000	2
1.5730000000	2
1.6030000000	1
1.6330000000	2
1.6630000000	1
1.6930000000	2
1.7230000000	1
1.7530000000	1
1.7830000000	1
1.8130000000	1
1.8430000000	1
1.8730000000	1
1.9030000000	1
1.9330000000	3
1.9630000000	2
1.9930000000	2
2.0230000000	1
2.0530000000	1
2.0830000000	1
2.1130000000	2
2.1430000000	1
2.1730000000	2
2.2030000000	1
2.2330000000	1
2.2630000000	1
2.2930000000	2
2.3230000000	2
2.3530000000	1
2.3830000000	1
2.4130000000	1
2.4430000000	2
2.4730000000	2
2.5030000000	1
2.5330000000	2
2.5630000000	1
2.5930000000	2
2.6230000000	3
2.6530000000	2
2.6830000000	1
2.7130000000	1
2.7430000000	2
2.7730000000	3
2.8030000000	1
2.8330000000	2
2.8630000000	2
2.8930000000	2
2.9230000000	1
2.9530000000	1
2.9830000000	2
3.0130000000	3
3.0430000000	1
3.0730000000	2
3.1030000000	3
3.1330000000	3
3.1630000000	2
3.1930000000	3
3.2230000000	2
3.2530000000	2
3.2830000000	1
3.3130000000	2
3.3430000000	2
3.3730000000	1
3.4030000000	1
3.4330000000	3
3.4630000000	2
3.4930000000	3
3.5230000000	3
3.5530000000	1
3.5830000000	2
3.6130000000	3
3.6430000000	4
3.6730000000	2
3.7030000000	1
3.7330000000	2
3.7630000000	1
3.7930000000	1
3.8230000000	3
3.8530000000	2
3.8830000000	4
3.9130000000	1
3.9430000000	3
3.9730000000	3
4.0030000000	1
4.0330000000	4
4.0630000000	5
4.0930000000	1
4.1230000000	4
4.1530000000	2
4.1830000000	2
4.2130000000	4
4.2430000000	1
4.2730000000	4
4.3030000000	4
4.3330000000	1
4.3630000000	3
4.3930000000	9
4.4230000000	6
4.4530000000	11
4.4830000000	14
4.5130000000	24
4.5430000000	32
4.5730000000	46
4.6030000000	59
4.6330000000	84
4.6630000000	122
4.6930000000	94
4.7230000000	139
4.7530000000	120
4.7830000000	150
4.8130000000	155
4.8430000000	137
4.8730000000	135
4.9030000000	151
4.9330000000	144
4.9630000000	148
4.9930000000	138
5.0230000000	146
5.0530000000	157
5.0830000000	135
5.1130000000	147
5.1430000000	138
5.1730000000	164
5.2030000000	147
5.2330000000	129
5.2630000000	141
5.2930000000	154
5.3230000000	137
5.3530000000	134
5.3830000000	149
5.4130000000	122
5.4430000000	134
5.4730000000	156
5.5030000000	133
5.5330000000	148
5.5630000000	156
5.5930000000	174
5.6230000000	169
5.6530000000	139
5.6830000000	134
5.7130000000	136
5.7430000000	160
5.7730000000	147
5.8030000000	174
5.8330000000	144
5.8630000000	145
5.8930000000	147
5.9230000000	138
5.9530000000	156
5.9830000000	160
6.0130000000	157
6.0430000000	151
6.0730000000	149
6.1030000000	148
6.1330000000	162
6.1630000000	150
6.1930000000	143
6.2230000000	166
6.2530000000	153
6.2830000000	161
6.3130000000	164
6.3430000000	145
6.3730000000	151
6.4030000000	143
6.4330000000	144
6.4630000000	153
6.4930000000	144
6.5230000000	147
6.5530000000	154
6.5830000000	165
6.6130000000	159
6.6430000000	154
6.6730000000	160
6.7030000000	167
6.7330000000	145
6.7630000000	146
6.7930000000	140
6.8230000000	155
6.8530000000	148
6.8830000000	147
6.9130000000	156
6.9430000000	146
6.9730000000	152
7.0030000000	154
7.0330000000	144
7.0630000000	141
7.0930000000	137
7.1230000000	151
7.1530000000	162
7.1830000000	142
7.2130000000	147
7.2430000000	149
7.2730000000	137
7.3030000000	146
7.3330000000	142
7.3630000000	139
7.3930000000	154
7.4230000000	155
7.4530000000	138
7.4830000000	155
7.5130000000	136
7.5430000000	127
7.5730000000	132
7.6030000000	126
7.6330000000	138
7.6630000000	146
7.6930000000	158
7.7230000000	139
7.7530000000	137
7.7830000000	150
7.8130000000	161
7.8430000000	159
7.8730000000	137
7.9030000000	132
7.9330000000	134
7.9630000000	143
7.9930000000	139
8.0230000000	134
8.0530000000	157
8.0830000000	174
8.1130000000	150
8.1430000000	164
8.1730000000	152
8.2030000000	147
8.2330000000	142
8.2630000000	148
8.2930000000	147
8.3230000000	130
8.3530000000	161
8.3830000000	150
8.4130000000	147
8.4430000000	146
8.4730000000	148
8.5030000000	144
8.5330000000	145
8.5630000000	159
8.5930000000	151
8.6230000000	142
8.6530000000	141
8.6830000000	157
8.7130000000	142
8.7430000000	158
8.7730000000	149
8.8030000000	133
8.8330000000	161
8.8630000000	125
8.8930000000	154
8.9230000000	141
8.9530000000	151
8.9830000000	160
9.0130000000	128
9.0430000000	172
9.0730000000	160
9.1030000000	156
9.1330000000	163
9.1630000000	143
9.1930000000	158
9.2230000000	157
9.2530000000	154
9.2830000000	154
9.3130000000	140
9.3430000000	157
9.3730000000	154
9.4030000000	168
9.4330000000	147
9.4630000000	125
9.4930000000	167
9.5230000000	147
9.5530000000	148
9.5830000000	138
9.6130000000	146
9.6430000000	157
9.6730000000	142
9.7030000000	133
9.7330000000	142
9.7630000000	138
9.7930000000	139
9.8230000000	143
9.8530000000	128
9.8830000000	132
9.9130000000	152
9.9430000000	146
9.9730000000	164
10.0030000000	158
10.0330000000	146
10.0630000000	151
10.0930000000	166
10.1230000000	139
10.1530000000	138
10.1830000000	128
10.2130000000	163
10.2430000000	179
10.2730000000	153
10.3030000000	150
10.3330000000	167
10.3630000000	155
10.3930000000	135
10.4230000000	144
10.4530000000	125
10.4830000000	174
10.5130000000	131
10.5430000000	140
10.5730000000	145
10.6030000000	143
10.6330000000	171
10.6630000000	156
10.6930000000	149
10.7230000000	142
10.7530000000	145
10.7830000000	164
10.8130000000	146
10.8430000000	150
10.8730000000	149
10.9030000000	132
10.9330000000	144
10.9630000000	150
10.9930000000	150
11.0230000000	144
11.0530000000	168
11.0830000000	134
11.1130000000	158
11.1430000000	145
11.1730000000	155
11.2030000000	144
11.2330000000	121
11.2630000000	128
11.2930000000	139
11.3230000000	136
11.3530000000	153
11.3830000000	145
11.4130000000	145
11.4430000000	170
11.4730000000	160
11.5030000000	138
11.5330000000	153
11.5630000000	150
11.5930000000	157
11.6230000000	150
11.6530000000	157
11.6830000000	158
11.7130000000	146
11.7430000000	137
11.7730000000	146
11.8030000000	149
11.8330000000	160
11.8630000000	150
11.8930000000	136
11.9230000000	122
11.9530000000	159
11.9830000000	141
12.0130000000	136
12.0430000000	148
12.0730000000	128
12.1030000000	120
12.1330000000	137
12.1630000000	174
12.1930000000	169
12.2230000000	142
12.2530000000	158
12.2830000000	141
12.3130000000	141
12.3430000000	140
12.3730000000	158
12.4030000000	171
12.4330000000	153
12.4630000000	152
12.4930000000	146
12.5230000000	139
12.5530000000	168
12.5830000000	165
12.6130000000	136
12.6430000000	144
12.6730000000	150
12.7030000000	156
12.7330000000	145
12.7630000000	157
12.7930000000	154
12.8230000000	133
12.8530000000	148
12.8830000000	143
12.9130000000	150
12.9430000000	147
12.9730000000	134
13.0030000000	151
13.0330000000	155
13.0630000000	149
13.0930000000	151
13.1230000000	150
13.1530000000	136
13.1830000000	158
13.2130000000	166
13.2430000000	167
13.2730000000	152
13.3030000000	136
13.3330000000	143
13.3630000000	140
13.3930000000	130
13.4230000000	136
13.4530000000	140
13.4830000000	151
13.5130000000	151
13.5430000000	146
13.5730000000	159
13.6030000000	165
13.6330000000	154
13.6630000000	154
13.6930000000	149
13.7230000000	141
13.7530000000	135
13.7830000000	138
13.8130000000	149
13.8430000000	140
13.8730000000	136
13.9030000000	158
13.9330000000	140
13.9630000000	140
13.9930000000	143
14.0230000000	131
14.0530000000	134
14.0830000000	142
14.1130000000	138
14.1430000000	144
14.1730000000	141
14.2030000000	132
14.2330000000	157
14.2630000000	172
14.2930000000	156
14.3230000000	139
14.3530000000	148
14.3830000000	146
14.4130000000	155
14.4430000000	178
14.4730000000	122
14.5030000000	145
14.5330000000	160
14.5630000000	129
14.5930000000	138
14.6230000000	136
14.6530000000	147
14.6830000000	143
14.7130000000	150
14.7430000000	146
14.7730000000	176
14.8030000000	159
14.8330000000	140
14.8630000000	153
14.8930000000	178
14.9230000000	162
14.9530000000	153
14.9830000000	175
15.0130000000	155
15.0430000000	150
15.0730000000	146
15.1030000000	169
15.1330000000	159
15.1630000000	160
15.1930000000	174
15.2230000000	174
15.2530000000	168
15.2830000000	148
15.3130000000	154
15.3430000000	174
15.3730000000	164
15.4030000000	157
15.4330000000	164
15.4630000000	148
15.4930000000	169
15.5230000000	137
15.5530000000	148
15.5830000000	170
15.6130000000	134
15.6430000000	159
15.6730000000	151
15.7030000000	168
15.7330000000	135
15.7630000000	153
15.7930000000	135
15.8230000000	136
15.8530000000	163
15.8830000000	152
15.9130000000	139
15.9430000000	171
15.9730000000	155
16.0030000000	137
16.0330000000	159
16.0630000000	124
16.0930000000	147
16.1230000000	133
16.1530000000	140
16.1830000000	154
16.2130000000	144
16.2430000000	154
16.2730000000	142
16.3030000000	144
16.3330000000	148
16.3630000000	139
16.3930000000	129
16.4230000000	158
16.4530000000	159
16.4830000000	151
16.5130000000	144
16.5430000000	134
16.5730000000	138
16.6030000000	154
16.6330000000	143
16.6630000000	167
16.6930000000	141
16.7230000000	167
16.7530000000	123
16.7830000000	141
16.8130000000	171
16.8430000000	143
16.8730000000	139
16.9030000000	137
16.9330000000	155
16.9630000000	147
16.9930000000	144
17.0230000000	165
17.0530000000	146
17.0830000000	147
17.1130000000	138
17.1430000000	151
17.1730000000	160
17.2030000000	153
17.2330000000	155
17.2630000000	158
17.2930000000	153
17.3230000000	166
17.3530000000	178
17.3830000000	144
17.4130000000	149
17.4430000000	141
17.4730000000	157
17.5030000000	156
17.5330000000	155
17.5630000000	148
17.5930000000	161
17.6230000000	166
17.6530000000	152
17.6830000000	163
17.7130000000	159
17.7430000000	159
17.7730000000	173
17.8030000000	164
17.8330000000	136
17.8630000000	123
17.8930000000	130
17.9230000000	142
17.9530000000	164
17.9830000000	154
18.0130000000	142
18.0430000000	162
18.0730000000	146
18.1030000000	133
18.1330000000	145
18.1630000000	149
18.1930000000	147
18.2230000000	160
18.2530000000	146
18.2830000000	150
18.3130000000	137
18.3430000000	154
18.3730000000	148
18.4030000000	155
18.4330000000	167
18.4630000000	141
18.4930000000	152
18.5230000000	142
18.5530000000	163
18.5830000000	152
18.6130000000	164
18.6430000000	177
18.6730000000	149
18.7030000000	140
18.7330000000	158
18.7630000000	167
18.7930000000	152
18.8230000000	191
18.8530000000	172
18.8830000000	143
18.9130000000	155
18.9430000000	169
18.9730000000	159
19.0030000000	141
19.0330000000	156
19.0630000000	155
19.0930000000	160
19.1230000000	145
19.1530000000	161
19.1830000000	166
19.2130000000	155
19.2430000000	148
19.2730000000	158
19.3030000000	158
19.3330000000	162
19.3630000000	157
19.3930000000	172
19.4230000000	159
19.4530000000	166
19.4830000000	162
19.5130000000	174
19.5430000000	145
19.5730000000	142
19.6030000000	139
19.6330000000	144
19.6630000000	150
19.6930000000	161
19.7230000000	159
19.7530000000	169
19.7830000000	140
19.8130000000	159
19.8430000000	166
19.8730000000	163
19.9030000000	156
19.9330000000	169
19.9630000000	169
19.9930000000	170
20.0230000000	157
20.0530000000	151
20.0830000000	168
20.1130000000	150
20.1430000000	154
20.1730000000	158
20.2030000000	168
20.2330000000	153
20.2630000000	178
20.2930000000	174
20.3230000000	169
20.3530000000	170
20.3830000000	146
20.4130000000	179
20.4430000000	174
20.4730000000	188
20.5030000000	190
20.5330000000	143
20.5630000000	140
20.5930000000	172
20.6230000000	147
20.6530000000	172
20.6830000000	162
20.7130000000	163
20.7430000000	186
20.7730000000	159
20.8030000000	165
20.8330000000	168
20.8630000000	152
20.8930000000	146
20.9230000000	187
20.9530000000	171
20.9830000000	160
21.0130000000	158
21.0430000000	165
21.0730000000	177
21.1030000000	167
21.1330000000	188
21.1630000000	180
21.1930000000	159
21.2230000000	178
21.2530000000	201
21.2830000000	154
21.3130000000	168
21.3430000000	208
21.3730000000	205
21.4030000000	181
21.4330000000	190
21.4630000000	168
21.4930000000	193
21.5230000000	201
21.5530000000	176
21.5830000000	176
21.6130000000	163
21.6430000000	180
21.6730000000	182
21.7030000000	169
21.7330000000	196
21.7630000000	183
21.7930000000	179
21.8230000000	181
21.8530000000	182
21.8830000000	193
21.9130000000	169
21.9430000000	155
21.9730000000	169
22.0030000000	180
22.0330000000	198
22.0630000000	186
22.0930000000	202
22.1230000000	199
22.1530000000	201
22.1830000000	197
22.2130000000	180
22.2430000000	187
22.2730000000	183
22.3030000000	205
22.3330000000	221
22.3630000000	193
22.3930000000	202
22.4230000000	175
22.4530000000	170
22.4830000000	207
22.5130000000	198
22.5430000000	172
22.5730000000	171
22.6030000000	193
22.6330000000	197
22.6630000000	175
22.6930000000	166
22.7230000000	177
22.7530000000	181
22.7830000000	204
22.8130000000	198
22.8430000000	220
22.8730000000	228
22.9030000000	204
22.9330000000	197
22.9630000000	173
22.9930000000	193
23.0230000000	191
23.0530000000	191
23.0830000000	183
23.1130000000	196
23.1430000000	204
23.1730000000	195
23.2030000000	221
23.2330000000	198
23.2630000000	201
23.2930000000	208
23.3230000000	246
23.3530000000	254
23.3830000000	271
23.4130000000	304
23.4430000000	381
23.4730000000	558
23.5030000000	819
23.5330000000	1119
23.5630000000	1646
23.5930000000	2395
23.6230000000	3237
23.6530000000	3565
23.6830000000	3169
23.7130000000	2375
23.7430000000	1640
23.7730000000	1133
23.8030000000	652
23.8330000000	513
23.8630000000	362
23.8930000000	307
23.9230000000	264
23.9530000000	250
23.9830000000	245
24.0130000000	217
24.0430000000	221
24.0730000000	208
24.1030000000	223
24.1330000000	221
24.1630000000	207
24.1930000000	199
24.2230000000	194
24.2530000000	203
24.2830000000	197
24.3130000000	191
24.3430000000	205
24.3730000000	199
24.4030000000	218
24.4330000000	167
24.4630000000	210
24.4930000000	210
24.5230000000	192
24.5530000000	206
24.5830000000	215
24.6130000000	196
24.6430000000	197
24.6730000000	179
24.7030000000	175
24.7330000000	216
24.7630000000	220
24.7930000000	162
24.8230000000	196
24.8530000000	182
24.8830000000	181
24.9130000000	183
24.9430000000	180
24.9730000000	171
25.0030000000	196
25.0330000000	182
25.0630000000	185
25.0930000000	193
25.1230000000	174
25.1530000000	197
25.1830000000	194
25.2130000000	188
25.2430000000	182
25.2730000000	185
25.3030000000	175
25.3330000000	177
25.3630000000	183
25.3930000000	185
25.4230000000	186
25.4530000000	180
25.4830000000	212
25.5130000000	177
25.5430000000	198
25.5730000000	173
25.6030000000	169
25.6330000000	174
25.6630000000	179
25.6930000000	183
25.7230000000	191
25.7530000000	194
25.7830000000	186
25.8130000000	178
25.8430000000	161
25.8730000000	181
25.9030000000	200
25.9330000000	185
25.9630000000	182
25.9930000000	201
26.0230000000	165
26.0530000000	180
26.0830000000	180
26.1130000000	186
26.1430000000	172
26.1730000000	198
26.2030000000	172
26.2330000000	187
26.2630000000	179
26.2930000000	210
26.3230000000	186
26.3530000000	176
26.3830000000	190
26.4130000000	186
26.4430000000	191
26.4730000000	192
26.5030000000	172
26.5330000000	172
26.5630000000	181
26.5930000000	183
26.6230000000	168
26.6530000000	187
26.6830000000	187
26.7130000000	176
26.7430000000	189
26.7730000000	214
26.8030000000	187
26.8330000000	189
26.8630000000	178
26.8930000000	170
26.9230000000	177
26.9530000000	176
26.9830000000	182
27.0130000000	180
27.0430000000	181
27.0730000000	192
27.1030000000	174
27.1330000000	159
27.1630000000	182
27.1930000000	186
27.2230000000	176
27.2530000000	191
27.2830000000	173
27.3130000000	177
27.3430000000	180
27.3730000000	163
27.4030000000	168
27.4330000000	175
27.4630000000	188
27.4930000000	169
27.5230000000	168
27.5530000000	156
27.5830000000	161
27.6130000000	167
27.6430000000	161
27.6730000000	175
27.7030000000	177
27.7330000000	172
27.7630000000	160
27.7930000000	186
27.8230000000	172
27.8530000000	179
27.8830000000	155
27.9130000000	183
27.9430000000	182
27.9730000000	191
28.0030000000	169
28.0330000000	175
28.0630000000	159
28.0930000000	186
28.1230000000	217
28.1530000000	176
28.1830000000	174
28.2130000000	188
28.2430000000	161
28.2730000000	175
28.3030000000	180
28.3330000000	170
28.3630000000	198
28.3930000000	179
28.4230000000	202
28.4530000000	181
28.4830000000	179
28.5130000000	163
28.5430000000	187
28.5730000000	166
28.6030000000	171
28.6330000000	167
28.6630000000	177
28.6930000000	193
28.7230000000	181
28.7530000000	158
28.7830000000	193
28.8130000000	184
28.8430000000	143
28.8730000000	174
28.9030000000	172
28.9330000000	179
28.9630000000	178
28.9930000000	173
29.0230000000	173
29.0530000000	170
29.0830000000	170
29.1130000000	156
29.1430000000	170
29.1730000000	167
29.2030000000	157
29.2330000000	166
29.2630000000	182
29.2930000000	162
29.3230000000	155
29.3530000000	160
29.3830000000	183
29.4130000000	150
29.4430000000	142
29.4730000000	147
29.5030000000	185
29.5330000000	154
29.5630000000	133
29.5930000000	162
29.6230000000	166
29.6530000000	168
29.6830000000	160
29.7130000000	162
29.7430000000	157
29.7730000000	158
29.8030000000	182
29.8330000000	158
29.8630000000	163
29.8930000000	170
29.9230000000	163
29.9530000000	174
29.9830000000	171
30.0130000000	152
30.0430000000	154
30.0730000000	152
30.1030000000	158
30.1330000000	166
30.1630000000	166
30.1930000000	139
30.2230000000	167
30.2530000000	181
30.2830000000	162
30.3130000000	166
30.3430000000	169
30.3730000000	175
30.4030000000	194
30.4330000000	146
30.4630000000	156
30.4930000000	153
30.5230000000	161
30.5530000000	168
30.5830000000	155
30.6130000000	144
30.6430000000	152
30.6730000000	159
30.7030000000	169
30.7330000000	165
30.7630000000	172
30.7930000000	179
30.8230000000	173
30.8530000000	137
30.8830000000	141
30.9130000000	165
30.9430000000	158
30.9730000000	141
31.0030000000	189
31.0330000000	180
31.0630000000	155
31.0930000000	145
31.1230000000	180
31.1530000000	160
31.1830000000	156
31.2130000000	158
31.2430000000	148
31.2730000000	162
31.3030000000	158
31.3330000000	167
31.3630000000	145
31.3930000000	169
31.4230000000	184
31.4530000000	155
31.4830000000	138
31.5130000000	167
31.5430000000	163
31.5730000000	168
31.6030000000	143
31.6330000000	158
31.6630000000	156
31.6930000000	154
31.7230000000	154
31.7530000000	152
31.7830000000	157
31.8130000000	148
31.8430000000	151
31.8730000000	171
31.9030000000	148
31.9330000000	165
31.9630000000	165
31.9930000000	166
32.0230000000	169
32.0530000000	164
32.0830000000	136
32.1130000000	166
32.1430000000	152
32.1730000000	168
32.2030000000	154
32.2330000000	168
32.2630000000	170
32.2930000000	169
32.3230000000	159
32.3530000000	158
32.3830000000	147
32.4130000000	134
32.4430000000	150
32.4730000000	181
32.5030000000	153
32.5330000000	146
32.5630000000	168
32.5930000000	157
32.6230000000	137
32.6530000000	152
32.6830000000	156
32.7130000000	162
32.7430000000	153
32.7730000000	165
32.8030000000	153
32.8330000000	141
32.8630000000	150
32.8930000000	151
32.9230000000	145
32.9530000000	176
32.9830000000	168
33.0130000000	168
33.0430000000	164
33.0730000000	142
33.1030000000	144
33.1330000000	166
33.1630000000	166
33.1930000000	167
33.2230000000	174
33.2530000000	164
33.2830000000	175
33.3130000000	153
33.3430000000	169
33.3730000000	180
33.4030000000	191
33.4330000000	207
33.4630000000	245
33.4930000000	305
33.5230000000	412
33.5530000000	642
33.5830000000	818
33.6130000000	1134
33.6430000000	1443
33.6730000000	1921
33.7030000000	1983
33.7330000000	1765
33.7630000000	1458
33.7930000000	1130
33.8230000000	741
33.8530000000	480
33.8830000000	362
33.9130000000	280
33.9430000000	234
33.9730000000	208
34.0030000000	183
34.0330000000	172
34.0630000000	182
34.0930000000	165
34.1230000000	163
34.1530000000	168
34.1830000000	183
34.2130000000	180
34.2430000000	157
34.2730000000	171
34.3030000000	165
34.3330000000	156
34.3630000000	161
34.3930000000	165
34.4230000000	155
34.4530000000	155
34.4830000000	151
34.5130000000	157
34.5430000000	155
34.5730000000	142
34.6030000000	162
34.6330000000	154
34.6630000000	164
34.6930000000	148
34.7230000000	136
34.7530000000	171
34.7830000000	164
34.8130000000	157
34.8430000000	153
34.8730000000	162
34.9030000000	154
34.9330000000	164
34.9630000000	162
34.9930000000	135
35.0230000000	139
35.0530000000	150
35.0830000000	129
35.1130000000	143
35.1430000000	149
35.1730000000	144
35.2030000000	153
35.2330000000	145
35.2630000000	131
35.2930000000	150
35.3230000000	144
35.3530000000	142
35.3830000000	156
35.4130000000	149
35.4430000000	135
35.4730000000	145
35.5030000000	145
35.5330000000	142
35.5630000000	146
35.5930000000	129
35.6230000000	130
35.6530000000	149
35.6830000000	140
35.7130000000	129
35.7430000000	146
35.7730000000	175
35.8030000000	131
35.8330000000	133
35.8630000000	123
35.8930000000	134
35.9230000000	156
35.9530000000	152
35.9830000000	145
36.0130000000	139
36.0430000000	120
36.0730000000	118
36.1030000000	134
36.1330000000	125
36.1630000000	124
36.1930000000	112
36.2230000000	154
36.2530000000	153
36.2830000000	134
36.3130000000	117
36.3430000000	126
36.3730000000	145
36.4030000000	127
36.4330000000	147
36.4630000000	127
36.4930000000	131
36.5230000000	135
36.5530000000	114
36.5830000000	125
36.6130000000	113
36.6430000000	132
36.6730000000	131
36.7030000000	116
36.7330000000	128
36.7630000000	126
36.7930000000	108
36.8230000000	111
36.8530000000	123
36.8830000000	133
36.9130000000	111
36.9430000000	130
36.9730000000	153
37.0030000000	139
37.0330000000	127
37.0630000000	122
37.0930000000	136
37.1230000000	126
37.1530000000	120
37.1830000000	111
37.2130000000	113
37.2430000000	128
37.2730000000	117
37.3030000000	103
37.3330000000	124
37.3630000000	149
37.3930000000	122
37.4230000000	125
37.4530000000	113
37.4830000000	120
37.5130000000	131
37.5430000000	114
37.5730000000	116
37.6030000000	121
37.6330000000	130
37.6630000000	126
37.6930000000	112
37.7230000000	113
37.7530000000	101
37.7830000000	128
37.8130000000	133
37.8430000000	125
37.8730000000	125
37.9030000000	117
37.9330000000	110
37.9630000000	126
37.9930000000	129
38.0230000000	115
38.0530000000	119
38.0830000000	106
38.1130000000	109
38.1430000000	127
38.1730000000	110
38.2030000000	120
38.2330000000	145
38.2630000000	139
38.2930000000	137
38.3230000000	121
38.3530000000	138
38.3830000000	128
38.4130000000	107
38.4430000000	133
38.4730000000	129
38.5030000000	110
38.5330000000	121
38.5630000000	113
38.5930000000	113
38.6230000000	114
38.6530000000	112
38.6830000000	109
38.7130000000	112
38.7430000000	116
38.7730000000	131
38.8030000000	126
38.8330000000	112
38.8630000000	117
38.8930000000	113
38.9230000000	118
38.9530000000	130
38.9830000000	130
39.0130000000	124
39.0430000000	119
39.0730000000	121
39.1030000000	110
39.1330000000	127
39.1630000000	127
39.1930000000	128
39.2230000000	109
39.2530000000	113
39.2830000000	130
39.3130000000	130
39.3430000000	105
39.3730000000	119
39.4030000000	127
39.4330000000	126
39.4630000000	114
39.4930000000	128
39.5230000000	96
39.5530000000	118
39.5830000000	120
39.6130000000	126
39.6430000000	113
39.6730000000	116
39.7030000000	118
39.7330000000	125
39.7630000000	101
39.7930000000	109
39.8230000000	119
39.8530000000	118
39.8830000000	110
39.9130000000	108
39.9430000000	120
39.9730000000	126
40.0030000000	120
40.0330000000	123
40.0630000000	91
40.0930000000	103
40.1230000000	116
40.1530000000	119
40.1830000000	113
40.2130000000	124
40.2430000000	93
40.2730000000	118
40.3030000000	102
40.3330000000	124
40.3630000000	132
40.3930000000	117
40.4230000000	108
40.4530000000	122
40.4830000000	120
40.5130000000	119
40.5430000000	107
40.5730000000	110
40.6030000000	125
40.6330000000	114
40.6630000000	112
40.6930000000	114
40.7230000000	123
40.7530000000	114
40.7830000000	128
40.8130000000	110
40.8430000000	105
40.8730000000	116
40.9030000000	113
40.9330000000	120
40.9630000000	107
40.9930000000	104
41.0230000000	115
41.0530000000	125
41.0830000000	137
41.1130000000	150
41.1430000000	125
41.1730000000	115
41.2030000000	124
41.2330000000	117
41.2630000000	109
41.2930000000	133
41.3230000000	116
41.3530000000	100
41.3830000000	149
41.4130000000	135
41.4430000000	152
41.4730000000	171
41.5030000000	195
41.5330000000	221
41.5630000000	239
41.5930000000	236
41.6230000000	222
41.6530000000	186
41.6830000000	174
41.7130000000	168
41.7430000000	148
41.7730000000	131
41.8030000000	140
41.8330000000	129
41.8630000000	124
41.8930000000	116
41.9230000000	120
41.9530000000	99
41.9830000000	91
42.0130000000	102
42.0430000000	106
42.0730000000	107
42.1030000000	116
42.1330000000	108
42.1630000000	93
42.1930000000	115
42.2230000000	116
42.2530000000	124
42.2830000000	117
42.3130000000	112
42.3430000000	113
42.3730000000	109
42.4030000000	105
42.4330000000	103
42.4630000000	122
42.4930000000	122
42.5230000000	115
42.5530000000	124
42.5830000000	125
42.6130000000	118
42.6430000000	111
42.6730000000	101
42.7030000000	112
42.7330000000	113
42.7630000000	101
42.7930000000	107
42.8230000000	111
42.8530000000	137
42.8830000000	107
42.9130000000	108
42.9430000000	124
42.9730000000	110
43.0030000000	120
43.0330000000	121
43.0630000000	110
43.0930000000	114
43.1230000000	98
43.1530000000	102
43.1830000000	128
43.2130000000	113
43.2430000000	123
43.2730000000	95
43.3030000000	119
43.3330000000	98
43.3630000000	107
43.3930000000	117
43.4230000000	136
43.4530000000	83
43.4830000000	104
43.5130000000	113
43.5430000000	103
43.5730000000	104
43.6030000000	109
43.6330000000	122
43.6630000000	100
43.6930000000	118
43.7230000000	114
43.7530000000	128
43.7830000000	105
43.8130000000	109
43.8430000000	110
43.8730000000	115
43.9030000000	105
43.9330000000	115
43.9630000000	112
43.9930000000	108
44.0230000000	103
44.0530000000	112
44.0830000000	102
44.1130000000	110
44.1430000000	92
44.1730000000	129
44.2030000000	100
44.2330000000	104
44.2630000000	96
44.2930000000	118
44.3230000000	126
44.3530000000	106
44.3830000000	87
44.4130000000	101
44.4430000000	100
44.4730000000	96
44.5030000000	122
44.5330000000	117
44.5630000000	93
44.5930000000	132
44.6230000000	113
44.6530000000	118
44.6830000000	98
44.7130000000	114
44.7430000000	101
44.7730000000	109
44.8030000000	107
44.8330000000	117
44.8630000000	105
44.8930000000	100
44.9230000000	109
44.9530000000	116
44.9830000000	92
45.0130000000	90
45.0430000000	92
45.0730000000	104
45.1030000000	112
45.1330000000	109
45.1630000000	77
45.1930000000	115
45.2230000000	100
45.2530000000	113
45.2830000000	101
45.3130000000	83
45.3430000000	99
45.3730000000	109
45.4030000000	98
45.4330000000	100
45.4630000000	117
45.4930000000	94
45.5230000000	90
45.5530000000	105
45.5830000000	115
45.6130000000	95
45.6430000000	96
45.6730000000	96
45.7030000000	89
45.7330000000	106
45.7630000000	108
45.7930000000	91
45.8230000000	96
45.8530000000	104
45.8830000000	112
45.9130000000	91
45.9430000000	97
45.9730000000	94
46.0030000000	95
46.0330000000	102
46.0630000000	102
46.0930000000	95
46.1230000000	90
46.1530000000	94
46.1830000000	104
46.2130000000	98
46.2430000000	97
46.2730000000	86
46.3030000000	98
46.3330000000	96
46.3630000000	102
46.3930000000	100
46.4230000000	92
46.4530000000	82
46.4830000000	91
46.5130000000	81
46.5430000000	96
46.5730000000	93
46.6030000000	99
46.6330000000	108
46.6630000000	104
46.6930000000	97
46.7230000000	85
46.7530000000	95
46.7830000000	97
46.8130000000	92
46.8430000000	121
46.8730000000	92
46.9030000000	101
46.9330000000	82
46.9630000000	88
46.9930000000	80
47.0230000000	106
47.0530000000	95
47.0830000000	102
47.1130000000	97
47.1430000000	107
47.1730000000	87
47.2030000000	110
47.2330000000	78
47.2630000000	102
47.2930000000	76
47.3230000000	106
47.3530000000	93
47.3830000000	85
47.4130000000	82
47.4430000000	73
47.4730000000	80
47.5030000000	97
47.5330000000	99
47.5630000000	83
47.5930000000	90
47.6230000000	103
47.6530000000	96
47.6830000000	91
47.7130000000	72
47.7430000000	103
47.7730000000	89
47.8030000000	76
47.8330000000	97
47.8630000000	92
47.8930000000	81
47.9230000000	92
47.9530000000	92
47.9830000000	95
48.0130000000	94
48.0430000000	94
48.0730000000	95
48.1030000000	102
48.1330000000	110
48.1630000000	115
48.1930000000	134
48.2230000000	138
48.2530000000	155
48.2830000000	212
48.3130000000	250
48.3430000000	324
48.3730000000	352
48.4030000000	357
48.4330000000	312
48.4630000000	281
48.4930000000	260
48.5230000000	224
48.5530000000	152
48.5830000000	120
48.6130000000	112
48.6430000000	102
48.6730000000	109
48.7030000000	94
48.7330000000	99
48.7630000000	95
48.7930000000	83
48.8230000000	94
48.8530000000	76
48.8830000000	78
48.9130000000	96
48.9430000000	85
48.9730000000	77
49.0030000000	90
49.0330000000	90
49.0630000000	76
49.0930000000	101
49.1230000000	70
49.1530000000	77
49.1830000000	85
49.2130000000	97
49.2430000000	85
49.2730000000	101
49.3030000000	73
49.3330000000	75
49.3630000000	86
49.3930000000	89
49.4230000000	97
49.4530000000	80
49.4830000000	78
49.5130000000	89
49.5430000000	92
49.5730000000	87
49.6030000000	71
49.6330000000	71
49.6630000000	89
49.6930000000	79
49.7230000000	82
49.7530000000	91
49.7830000000	73
49.8130000000	82
49.8430000000	82
49.8730000000	89
49.9030000000	75
49.9330000000	83
49.9630000000	87
49.9930000000	87
50.0230000000	84
50.0530000000	83
50.0830000000	79
50.1130000000	73
50.1430000000	73
50.1730000000	86
50.2030000000	79
50.2330000000	74
50.2630000000	79
50.2930000000	81
50.3230000000	77
50.3530000000	78
50.3830000000	63
50.4130000000	98
50.4430000000	77
50.4730000000	76
50.5030000000	77
50.5330000000	76
50.5630000000	65
50.5930000000	65
50.6230000000	71
50.6530000000	66
50.6830000000	64
50.7130000000	74
50.7430000000	78
50.7730000000	68
50.8030000000	75
50.8330000000	66
50.8630000000	72
50.8930000000	87
50.9230000000	76
50.9530000000	86
50.9830000000	81
51.0130000000	65
51.0430000000	65
51.0730000000	67
51.1030000000	72
51.1330000000	66
51.1630000000	72
51.1930000000	73
51.2230000000	65
51.2530000000	73
51.2830000000	74
51.3130000000	61
51.3430000000	66
51.3730000000	73
51.4030000000	63
51.4330000000	66
51.4630000000	66
51.4930000000	66
51.5230000000	67
51.5530000000	71
51.5830000000	68
51.6130000000	74
51.6430000000	77
51.6730000000	70
51.7030000000	67
51.7330000000	72
51.7630000000	63
51.7930000000	56
51.8230000000	74
51.8530000000	69
51.8830000000	72
51.9130000000	64
51.9430000000	72
51.9730000000	62
52.0030000000	65
52.0330000000	58
52.0630000000	59
52.0930000000	67
52.1230000000	52
52.1530000000	87
52.1830000000	69
52.2130000000	56
52.2430000000	64
52.2730000000	65
52.3030000000	59
52.3330000000	75
52.3630000000	72
52.3930000000	70
52.4230000000	71
52.4530000000	73
52.4830000000	65
52.5130000000	80
52.5430000000	73
52.5730000000	76
52.6030000000	64
52.6330000000	58
52.6630000000	88
52.6930000000	66
52.7230000000	79
52.7530000000	64
52.7830000000	61
52.8130000000	68
52.8430000000	71
52.8730000000	65
52.9030000000	65
52.9330000000	64
52.9630000000	67
52.9930000000	64
53.0230000000	77
53.0530000000	69
53.0830000000	58
53.1130000000	67
53.1430000000	65
53.1730000000	61
53.2030000000	76
53.2330000000	48
53.2630000000	55
53.2930000000	68
53.3230000000	63
53.3530000000	62
53.3830000000	68
53.4130000000	68
53.4430000000	65
53.4730000000	43
53.5030000000	68
53.5330000000	65
53.5630000000	63
53.5930000000	67
53.6230000000	73
53.6530000000	74
53.6830000000	68
53.7130000000	67
53.7430000000	75
53.7730000000	72
53.8030000000	70
53.8330000000	79
53.8630000000	66
53.8930000000	54
53.9230000000	59
53.9530000000	62
53.9830000000	61
54.0130000000	69
54.0430000000	57
54.0730000000	61
54.1030000000	63
54.1330000000	51
54.1630000000	60
54.1930000000	57
54.2230000000	72
54.2530000000	77
54.2830000000	62
54.3130000000	63
54.3430000000	59
54.3730000000	60
54.4030000000	62
54.4330000000	73
54.4630000000	73
54.4930000000	77
54.5230000000	69
54.5530000000	75
54.5830000000	75
54.6130000000	62
54.6430000000	69
54.6730000000	58
54.7030000000	62
54.7330000000	64
54.7630000000	44
54.7930000000	53
54.8230000000	64
54.8530000000	56
54.8830000000	58
54.9130000000	48
54.9430000000	56
54.9730000000	70
55.0030000000	54
55.0330000000	68
55.0630000000	49
55.0930000000	73
55.1230000000	55
55.1530000000	71
55.1830000000	48
55.2130000000	60
55.2430000000	50
55.2730000000	54
55.3030000000	64
55.3330000000	56
55.3630000000	61
55.3930000000	70
55.4230000000	65
55.4530000000	59
55.4830000000	51
55.5130000000	67
55.5430000000	74
55.5730000000	65
55.6030000000	51
55.6330000000	44
55.6630000000	56
55.6930000000	67
55.7230000000	63
55.7530000000	64
55.7830000000	60
55.8130000000	64
55.8430000000	49
55.8730000000	52
55.9030000000	60
55.9330000000	47
55.9630000000	69
55.9930000000	68
56.0230000000	53
56.0530000000	65
56.0830000000	41
56.1130000000	65
56.1430000000	58
56.1730000000	49
56.2030000000	53
56.2330000000	62
56.2630000000	48
56.2930000000	62
56.3230000000	51
56.3530000000	58
56.3830000000	66
56.4130000000	59
56.4430000000	56
56.4730000000	54
56.5030000000	67
56.5330000000	55
56.5630000000	57
56.5930000000	61
56.6230000000	61
56.6530000000	55
56.6830000000	59
56.7130000000	51
56.7430000000	52
56.7730000000	61
56.8030000000	53
56.8330000000	55
56.8630000000	47
56.8930000000	59
56.9230000000	53
56.9530000000	48
56.9830000000	61
57.0130000000	55
57.0430000000	46
57.0730000000	56
57.1030000000	65
57.1330000000	44
57.1630000000	78
57.1930000000	65
57.2230000000	49
57.2530000000	47
57.2830000000	49
57.3130000000	57
57.3430000000	54
57.3730000000	41
57.4030000000	54
57.4330000000	63
57.4630000000	45
57.4930000000	40
57.5230000000	46
57.5530000000	52
57.5830000000	57
57.6130000000	48
57.6430000000	60
57.6730000000	48
57.7030000000	47
57.7330000000	45
57.7630000000	42
57.7930000000	58
57.8230000000	61
57.8530000000	60
57.8830000000	43
57.9130000000	49
57.9430000000	58
57.9730000000	49
58.0030000000	48
58.0330000000	47
58.0630000000	53
58.0930000000	46
58.1230000000	47
58.1530000000	53
58.1830000000	50
58.2130000000	57
58.2430000000	63
58.2730000000	62
58.3030000000	39
58.3330000000	46
58.3630000000	58
58.3930000000	55
58.4230000000	60
58.4530000000	63
58.4830000000	47
58.5130000000	56
58.5430000000	59
58.5730000000	64
58.6030000000	53
58.6330000000	49
58.6630000000	52
58.6930000000	52
58.7230000000	56
58.7530000000	55
58.7830000000	40
58.8130000000	52
58.8430000000	46
58.8730000000	46
58.9030000000	49
58.9330000000	50
58.9630000000	57
58.9930000000	56
59.0230000000	53
59.0530000000	54
59.0830000000	49
59.1130000000	49
59.1430000000	60
59.1730000000	52
59.2030000000	51
59.2330000000	71
59.2630000000	54
59.2930000000	54
59.3230000000	53
59.3530000000	58
59.3830000000	54
59.4130000000	52
59.4430000000	51
59.4730000000	50
59.5030000000	56
59.5330000000	62
59.5630000000	64
59.5930000000	58
59.6230000000	46
59.6530000000	49
59.6830000000	54
59.7130000000	47
59.7430000000	47
59.7730000000	61
59.8030000000	54
59.8330000000	51
59.8630000000	46
59.8930000000	53
59.9230000000	44
59.9530000000	53
59.9830000000	38
60.0130000000	51
60.0430000000	45
60.0730000000	65
60.1030000000	63
60.1330000000	62
60.1630000000	76
60.1930000000	66
60.2230000000	60
60.2530000000	83
60.2830000000	51
60.3130000000	58
60.3430000000	54
60.3730000000	59
60.4030000000	64
60.4330000000	54
60.4630000000	51
60.4930000000	44
60.5230000000	46
60.5530000000	50
60.5830000000	59
60.6130000000	41
60.6430000000	57
60.6730000000	47
60.7030000000	46
60.7330000000	46
60.7630000000	47
60.7930000000	54
60.8230000000	53
60.8530000000	45
60.8830000000	52
60.9130000000	49
60.9430000000	44
60.9730000000	47
61.0030000000	57
61.0330000000	47
61.0630000000	42
61.0930000000	39
61.1230000000	41
61.1530000000	54
61.1830000000	51
61.2130000000	58
61.2430000000	34
61.2730000000	50
61.3030000000	46
61.3330000000	47
61.3630000000	54
61.3930000000	49
61.4230000000	54
61.4530000000	54
61.4830000000	43
61.5130000000	51
61.5430000000	44
61.5730000000	49
61.6030000000	60
61.6330000000	47
61.6630000000	40
61.6930000000	49
61.7230000000	55
61.7530000000	46
61.7830000000	51
61.8130000000	47
61.8430000000	61
61.8730000000	65
61.9030000000	47
61.9330000000	52
61.9630000000	48
61.9930000000	55
62.0230000000	58
62.0530000000	52
62.0830000000	57
62.1130000000	49
62.1430000000	57
62.1730000000	43
62.2030000000	48
62.2330000000	44
62.2630000000	49
62.2930000000	44
62.3230000000	39
62.3530000000	45
62.3830000000	49
62.4130000000	46
62.4430000000	50
62.4730000000	54
62.5030000000	47
62.5330000000	49
62.5630000000	43
62.5930000000	47
62.6230000000	37
62.6530000000	48
62.6830000000	47
62.7130000000	46
62.7430000000	47
62.7730000000	48
62.8030000000	59
62.8330000000	45
62.8630000000	45
62.8930000000	56
62.9230000000	48
62.9530000000	53
62.9830000000	56
63.0130000000	45
63.0430000000	50
63.0730000000	53
63.1030000000	52
63.1330000000	53
63.1630000000	52
63.1930000000	40
63.2230000000	34
63.2530000000	51
63.2830000000	48
63.3130000000	47
63.3430000000	53
63.3730000000	37
63.4030000000	35
63.4330000000	44
63.4630000000	46
63.4930000000	46
63.5230000000	53
63.5530000000	42
63.5830000000	55
63.6130000000	47
63.6430000000	56
63.6730000000	53
63.7030000000	52
63.7330000000	53
63.7630000000	54
63.7930000000	43
63.8230000000	45
63.8530000000	62
63.8830000000	47
63.9130000000	59
63.9430000000	57
63.9730000000	52
64.0030000000	36
64.0330000000	51
64.0630000000	47
64.0930000000	47
64.1230000000	53
64.1530000000	49
64.1830000000	53
64.2130000000	54
64.2430000000	51
64.2730000000	52
64.3030000000	46
64.3330000000	36
64.3630000000	51
64.3930000000	59
64.4230000000	56
64.4530000000	48
64.4830000000	55
64.5130000000	44
64.5430000000	47
64.5730000000	38
64.6030000000	51
64.6330000000	68
64.6630000000	34
64.6930000000	45
64.7230000000	54
64.7530000000	41
64.7830000000	50
64.8130000000	48
64.8430000000	43
64.8730000000	54
64.9030000000	44
64.9330000000	49
64.9630000000	44
64.9930000000	43
65.0230000000	51
65.0530000000	53
65.0830000000	51
65.1130000000	45
65.1430000000	46
65.1730000000	49
65.2030000000	41
65.2330000000	29
65.2630000000	45
65.2930000000	43
65.3230000000	47
65.3530000000	52
65.3830000000	55
65.4130000000	46
65.4430000000	42
65.4730000000	47
65.5030000000	47
65.5330000000	53
65.5630000000	57
65.5930000000	53
65.6230000000	57
65.6530000000	51
65.6830000000	46
65.7130000000	49
65.7430000000	43
65.7730000000	40
65.8030000000	53
65.8330000000	44
65.8630000000	49
65.8930000000	48
65.9230000000	47
65.9530000000	41
65.9830000000	57
66.0130000000	40
66.0430000000	58
66.0730000000	46
66.1030000000	48
66.1330000000	46
66.1630000000	49
66.1930000000	48
66.2230000000	52
66.2530000000	55
66.2830000000	56
66.3130000000	34
66.3430000000	50
66.3730000000	51
66.4030000000	56
66.4330000000	39
66.4630000000	41
66.4930000000	52
66.5230000000	40
66.5530000000	42
66.5830000000	45
66.6130000000	42
66.6430000000	52
66.6730000000	46
66.7030000000	45
66.7330000000	41
66.7630000000	52
66.7930000000	46
66.8230000000	45
66.8530000000	53
66.8830000000	44
66.9130000000	45
66.9430000000	48
66.9730000000	48
67.0030000000	42
67.0330000000	45
67.0630000000	52
67.0930000000	45
67.1230000000	41
67.1530000000	52
67.1830000000	48
67.2130000000	40
67.2430000000	51
67.2730000000	38
67.3030000000	47
67.3330000000	58
67.3630000000	47
67.3930000000	47
67.4230000000	46
67.4530000000	51
67.4830000000	45
67.5130000000	36
67.5430000000	44
67.5730000000	49
67.6030000000	62
67.6330000000	41
67.6630000000	43
67.6930000000	49
67.7230000000	50
67.7530000000	45
67.7830000000	48
67.8130000000	48
67.8430000000	44
67.8730000000	45
67.9030000000	42
67.9330000000	45
67.9630000000	47
67.9930000000	46
68.0230000000	51
68.0530000000	46
68.0830000000	59
68.1130000000	50
68.1430000000	45
68.1730000000	44
68.2030000000	59
68.2330000000	43
68.2630000000	52
68.2930000000	48
68.3230000000	38
68.3530000000	37
68.3830000000	45
68.4130000000	51
68.4430000000	31
68.4730000000	38
68.5030000000	53
68.5330000000	50
68.5630000000	47
68.5930000000	42
68.6230000000	46
68.6530000000	45
68.6830000000	54
68.7130000000	42
68.7430000000	40
68.7730000000	58
68.8030000000	48
68.8330000000	50
68.8630000000	50
68.8930000000	43
68.9230000000	32
68.9530000000	39
68.9830000000	61
69.0130000000	51
69.0430000000	43
69.0730000000	35
69.1030000000	51
69.1330000000	52
69.1630000000	29
69.1930000000	52
69.2230000000	45
69.2530000000	43
69.2830000000	44
69.3130000000	39
69.3430000000	41
69.3730000000	38
69.4030000000	43
69.4330000000	43
69.4630000000	44
69.4930000000	53
69.5230000000	50
69.5530000000	44
69.5830000000	57
69.6130000000	52
69.6430000000	42
69.6730000000	53
69.7030000000	57
69.7330000000	39
69.7630000000	37
69.7930000000	56
69.8230000000	52
69.8530000000	43
69.8830000000	47
69.9130000000	44
69.9430000000	54
69.9730000000	52
70.0030000000	52
70.0330000000	43
70.0630000000	42
70.0930000000	60
70.1230000000	45
70.1530000000	40
70.1830000000	39
70.2130000000	36
70.2430000000	35
70.2730000000	51
70.3030000000	38
70.3330000000	50
70.3630000000	51
70.3930000000	48
70.4230000000	40
70.4530000000	44
70.4830000000	37
70.5130000000	43
70.5430000000	38
70.5730000000	59
70.6030000000	58
70.6330000000	49
70.6630000000	37
70.6930000000	53
70.7230000000	58
70.7530000000	41
70.7830000000	35
70.8130000000	47
70.8430000000	40
70.8730000000	49
70.9030000000	39
70.9330000000	47
70.9630000000	42
70.9930000000	48
71.0230000000	43
71.0530000000	39
71.0830000000	43
71.1130000000	47
71.1430000000	63
71.1730000000	51
71.2030000000	43
71.2330000000	37
71.2630000000	42
71.2930000000	54
71.3230000000	54
71.3530000000	42
71.3830000000	42
71.4130000000	46
71.4430000000	45
71.4730000000	58
71.5030000000	54
71.5330000000	51
71.5630000000	44
71.5930000000	51
71.6230000000	49
71.6530000000	51
71.6830000000	49
71.7130000000	41
71.7430000000	57
71.7730000000	49
71.8030000000	44
71.8330000000	38
71.8630000000	48
71.8930000000	59
71.9230000000	39
71.9530000000	38
71.9830000000	45
72.0130000000	42
72.0430000000	44
72.0730000000	53
72.1030000000	54
72.1330000000	55
72.1630000000	39
72.1930000000	54
72.2230000000	48
72.2530000000	50
72.2830000000	34
72.3130000000	52
72.3430000000	44
72.3730000000	41
72.4030000000	33
72.4330000000	50
72.4630000000	46
72.4930000000	42
72.5230000000	57
72.5530000000	48
72.5830000000	55
72.6130000000	34
72.6430000000	49
72.6730000000	44
72.7030000000	50
72.7330000000	38
72.7630000000	49
72.7930000000	47
72.8230000000	45
72.8530000000	52
72.8830000000	44
72.9130000000	50
72.9430000000	35
72.9730000000	51
73.0030000000	49
73.0330000000	47
73.0630000000	44
73.0930000000	48
73.1230000000	53
73.1530000000	44
73.1830000000	47
73.2130000000	46
73.2430000000	43
73.2730000000	49
73.3030000000	39
73.3330000000	50
73.3630000000	49
73.3930000000	51
73.4230000000	33
73.4530000000	48
73.4830000000	46
73.5130000000	49
73.5430000000	49
73.5730000000	52
73.6030000000	44
73.6330000000	35
73.6630000000	42
73.6930000000	40
73.7230000000	34
73.7530000000	43
73.7830000000	44
73.8130000000	45
73.8430000000	47
73.8730000000	52
73.9030000000	57
73.9330000000	47
73.9630000000	41
73.9930000000	60
74.0230000000	50
74.0530000000	42
74.0830000000	48
74.1130000000	57
74.1430000000	46
74.1730000000	60
74.2030000000	36
74.2330000000	44
74.2630000000	46
74.2930000000	47
74.3230000000	44
74.3530000000	54
74.3830000000	46
74.4130000000	38
74.4430000000	35
74.4730000000	35
74.5030000000	45
74.5330000000	48
74.5630000000	46
74.5930000000	47
74.6230000000	41
74.6530000000	38
74.6830000000	57
74.7130000000	64
74.7430000000	47
74.7730000000	37
74.8030000000	48
74.8330000000	44
74.8630000000	46
74.8930000000	47
74.9230000000	42
74.9530000000	43
74.9830000000	46
75.0130000000	53
75.0430000000	43
75.0730000000	47
75.1030000000	52
75.1330000000	45
75.1630000000	50
75.1930000000	40
75.2230000000	43
75.2530000000	43
75.2830000000	48
75.3130000000	50
75.3430000000	55
75.3730000000	48
75.4030000000	45
75.4330000000	53
75.4630000000	53
75.4930000000	45
75.5230000000	52
75.5530000000	42
75.5830000000	39
75.6130000000	45
75.6430000000	48
75.6730000000	45
75.7030000000	66
75.7330000000	51
75.7630000000	48
75.7930000000	55
75.8230000000	78
75.8530000000	65
75.8830000000	54
75.9130000000	55
75.9430000000	63
75.9730000000	70
76.0030000000	62
76.0330000000	59
76.0630000000	60
76.0930000000	49
76.1230000000	41
76.1530000000	52
76.1830000000	56
76.2130000000	58
76.2430000000	57
76.2730000000	42
76.3030000000	53
76.3330000000	45
76.3630000000	38
76.3930000000	39
76.4230000000	44
76.4530000000	51
76.4830000000	41
76.5130000000	38
76.5430000000	42
76.5730000000	38
76.6030000000	53
76.6330000000	41
76.6630000000	42
76.6930000000	36
76.7230000000	38
76.7530000000	41
76.7830000000	50
76.8130000000	34
76.8430000000	34
76.8730000000	47
76.9030000000	48
76.9330000000	30
76.9630000000	46
76.9930000000	47
77.0230000000	42
77.0530000000	38
77.0830000000	35
77.1130000000	34
77.1430000000	40
77.1730000000	43
77.2030000000	33
77.2330000000	56
77.2630000000	50
77.2930000000	39
77.3230000000	35
77.3530000000	48
77.3830000000	40
77.4130000000	49
77.4430000000	31
77.4730000000	31
77.5030000000	34
77.5330000000	39
77.5630000000	52
77.5930000000	47
77.6230000000	34
77.6530000000	37
77.6830000000	38
77.7130000000	55
77.7430000000	35
77.7730000000	37
77.8030000000	48
77.8330000000	40
77.8630000000	43
77.8930000000	46
77.9230000000	51
77.9530000000	49
77.9830000000	44
78.0130000000	49
78.0430000000	39
78.0730000000	44
78.1030000000	41
78.1330000000	38
78.1630000000	44
78.1930000000	47
78.2230000000	31
78.2530000000	48
78.2830000000	35
78.3130000000	40
78.3430000000	47
78.3730000000	40
78.4030000000	40
78.4330000000	43
78.4630000000	47
78.4930000000	41
78.5230000000	41
78.5530000000	43
78.5830000000	41
78.6130000000	55
78.6430000000	51
78.6730000000	41
78.7030000000	54
78.7330000000	33
78.7630000000	38
78.7930000000	42
78.8230000000	45
78.8530000000	44
78.8830000000	47
78.9130000000	42
78.9430000000	31
78.9730000000	34
79.0030000000	46
79.0330000000	46
79.0630000000	41
79.0930000000	41
79.1230000000	46
79.1530000000	33
79.1830000000	44
79.2130000000	50
79.2430000000	36
79.2730000000	36
79.3030000000	35
79.3330000000	47
79.3630000000	42
79.3930000000	38
79.4230000000	47
79.4530000000	51
79.4830000000	44
79.5130000000	39
79.5430000000	32
79.5730000000	38
79.6030000000	38
79.6330000000	45
79.6630000000	40
79.6930000000	38
79.7230000000	51
79.7530000000	50
79.7830000000	52
79.8130000000	33
79.8430000000	35
79.8730000000	34
79.9030000000	50
79.9330000000	27
79.9630000000	38
79.9930000000	52
80.0230000000	41
80.0530000000	35
80.0830000000	43
80.1130000000	36
80.1430000000	32
80.1730000000	43
80.2030000000	42
80.2330000000	38
80.2630000000	43
80.2930000000	51
80.3230000000	38
80.3530000000	40
80.3830000000	35
80.4130000000	43
80.4430000000	40
80.4730000000	43
80.5030000000	33
80.5330000000	43
80.5630000000	39
80.5930000000	54
80.6230000000	48
80.6530000000	57
80.6830000000	59
80.7130000000	40
80.7430000000	52
80.7730000000	41
80.8030000000	34
80.8330000000	45
80.8630000000	47
80.8930000000	50
80.9230000000	47
80.9530000000	34
80.9830000000	36
81.0130000000	31
81.0430000000	36
81.0730000000	38
81.1030000000	52
81.1330000000	31
81.1630000000	48
81.1930000000	39
81.2230000000	45
81.2530000000	53
81.2830000000	41
81.3130000000	52
81.3430000000	47
81.3730000000	38
81.4030000000	47
81.4330000000	56
81.4630000000	34
81.4930000000	44
81.5230000000	42
81.5530000000	46
81.5830000000	52
81.6130000000	44
81.6430000000	33
81.6730000000	47
81.7030000000	33
81.7330000000	41
81.7630000000	41
81.7930000000	43
81.8230000000	38
81.8530000000	43
81.8830000000	45
81.9130000000	48
81.9430000000	45
81.9730000000	47
82.0030000000	56
82.0330000000	33
82.0630000000	31
82.0930000000	43
82.1230000000	51
82.1530000000	39
82.1830000000	41
82.2130000000	42
82.2430000000	38
82.2730000000	38
82.3030000000	43
82.3330000000	43
82.3630000000	48
82.3930000000	40
82.4230000000	38
82.4530000000	43
82.4830000000	40
82.5130000000	37
82.5430000000	45
82.5730000000	40
82.6030000000	34
82.6330000000	45
82.6630000000	49
82.6930000000	53
82.7230000000	36
82.7530000000	54
82.7830000000	52
82.8130000000	40
82.8430000000	46
82.8730000000	47
82.9030000000	42
82.9330000000	42
82.9630000000	40
82.9930000000	41
83.0230000000	44
83.0530000000	38
83.0830000000	36
83.1130000000	40
83.1430000000	32
83.1730000000	34
83.2030000000	36
83.2330000000	53
83.2630000000	47
83.2930000000	29
83.3230000000	32
83.3530000000	47
83.3830000000	37
83.4130000000	41
83.4430000000	41
83.4730000000	42
83.5030000000	41
83.5330000000	45
83.5630000000	43
83.5930000000	38
83.6230000000	35
83.6530000000	30
83.6830000000	18
83.7130000000	43
83.7430000000	44
83.7730000000	49
83.8030000000	41
83.8330000000	43
83.8630000000	39
83.8930000000	35
83.9230000000	48
83.9530000000	41
83.9830000000	31
84.0130000000	44
84.0430000000	37
84.0730000000	42
84.1030000000	32
84.1330000000	42
84.1630000000	40
84.1930000000	31
84.2230000000	42
84.2530000000	43
84.2830000000	37
84.3130000000	36
84.3430000000	43
84.3730000000	35
84.4030000000	27
84.4330000000	40
84.4630000000	40
84.4930000000	38
84.5230000000	33
84.5530000000	43
84.5830000000	47
84.6130000000	46
84.6430000000	39
84.6730000000	43
84.7030000000	41
84.7330000000	41
84.7630000000	51
84.7930000000	29
84.8230000000	39
84.8530000000	44
84.8830000000	30
84.9130000000	41
84.9430000000	38
84.9730000000	46
85.0030000000	45
85.0330000000	50
85.0630000000	30
85.0930000000	42
85.1230000000	34
85.1530000000	46
85.1830000000	38
85.2130000000	41
85.2430000000	39
85.2730000000	37
85.3030000000	34
85.3330000000	30
85.3630000000	45
85.3930000000	49
85.4230000000	35
85.4530000000	38
85.4830000000	36
85.5130000000	54
85.5430000000	46
85.5730000000	38
85.6030000000	36
85.6330000000	36
85.6630000000	45
85.6930000000	45
85.7230000000	44
85.7530000000	43
85.7830000000	40
85.8130000000	35
85.8430000000	40
85.8730000000	33
85.9030000000	34
85.9330000000	50
85.9630000000	41
85.9930000000	41
86.0230000000	47
86.0530000000	54
86.0830000000	52
86.1130000000	41
86.1430000000	47
86.1730000000	30
86.2030000000	34
86.2330000000	43
86.2630000000	39
86.2930000000	41
86.3230000000	43
86.3530000000	37
86.3830000000	43
86.4130000000	39
86.4430000000	37
86.4730000000	38
86.5030000000	41
86.5330000000	41
86.5630000000	45
86.5930000000	41
86.6230000000	34
86.6530000000	48
86.6830000000	35
86.7130000000	40
86.7430000000	53
86.7730000000	35
86.8030000000	25
86.8330000000	37
86.8630000000	37
86.8930000000	47
86.9230000000	40
86.9530000000	40
86.9830000000	46
87.0130000000	40
87.0430000000	39
87.0730000000	38
87.1030000000	35
87.1330000000	45
87.1630000000	39
87.1930000000	34
87.2230000000	44
87.2530000000	37
87.2830000000	35
87.3130000000	48
87.3430000000	41
87.3730000000	36
87.4030000000	39
87.4330000000	40
87.4630000000	35
87.4930000000	43
87.5230000000	40
87.5530000000	35
87.5830000000	43
87.6130000000	33
87.6430000000	42
87.6730000000	37
87.7030000000	38
87.7330000000	47
87.7630000000	49
87.7930000000	47
87.8230000000	43
87.8530000000	45
87.8830000000	47
87.9130000000	39
87.9430000000	46
87.9730000000	31
88.0030000000	48
88.0330000000	46
88.0630000000	49
88.0930000000	33
88.1230000000	35
88.1530000000	41
88.1830000000	31
88.2130000000	40
88.2430000000	29
88.2730000000	36
88.3030000000	34
88.3330000000	44
88.3630000000	41
88.3930000000	35
88.4230000000	33
88.4530000000	39
88.4830000000	48
88.5130000000	38
88.5430000000	37
88.5730000000	34
88.6030000000	50
88.6330000000	35
88.6630000000	37
88.6930000000	42
88.7230000000	38
88.7530000000	38
88.7830000000	33
88.8130000000	34
88.8430000000	41
88.8730000000	29
88.9030000000	30
88.9330000000	41
88.9630000000	36
88.9930000000	40
89.0230000000	34
89.0530000000	37
89.0830000000	49
89.1130000000	40
89.1430000000	34
89.1730000000	39
89.2030000000	43
89.2330000000	35
89.2630000000	34
89.2930000000	37
89.3230000000	42
89.3530000000	41
89.3830000000	31
89.4130000000	41
89.4430000000	32
89.4730000000	33
89.5030000000	42
89.5330000000	52
89.5630000000	41
89.5930000000	36
89.6230000000	33
89.6530000000	35
89.6830000000	43
89.7130000000	40
89.7430000000	35
89.7730000000	34
89.8030000000	35
89.8330000000	42
89.8630000000	43
89.8930000000	37
89.9230000000	35
89.9530000000	40
89.9830000000	40
90.0130000000	28
90.0430000000	42
90.0730000000	25
90.1030000000	41
90.1330000000	47
90.1630000000	42
90.1930000000	43
90.2230000000	35
90.2530000000	39
90.2830000000	48
90.3130000000	49
90.3430000000	42
90.3730000000	47
90.4030000000	38
90.4330000000	34
90.4630000000	39
90.4930000000	48
90.5230000000	37
90.5530000000	39
90.5830000000	50
90.6130000000	53
90.6430000000	38
90.6730000000	37
90.7030000000	41
90.7330000000	51
90.7630000000	47
90.7930000000	41
90.8230000000	32
90.8530000000	43
90.8830000000	38
90.9130000000	36
90.9430000000	34
90.9730000000	35
91.0030000000	50
91.0330000000	37
91.0630000000	33
91.0930000000	38
91.1230000000	49
91.1530000000	37
91.1830000000	33
91.2130000000	34
91.2430000000	37
91.2730000000	38
91.3030000000	38
91.3330000000	52
91.3630000000	44
91.3930000000	34
91.4230000000	41
91.4530000000	45
91.4830000000	42
91.5130000000	36
91.5430000000	33
91.5730000000	31
91.6030000000	47
91.6330000000	55
91.6630000000	42
91.6930000000	42
91.7230000000	48
91.7530000000	39
91.7830000000	40
91.8130000000	47
91.8430000000	32
91.8730000000	43
91.9030000000	42
91.9330000000	41
91.9630000000	35
91.9930000000	35
92.0230000000	39
92.0530000000	49
92.0830000000	53
92.1130000000	48
92.1430000000	36
92.1730000000	42
92.2030000000	34
92.2330000000	46
92.2630000000	45
92.2930000000	36
92.3230000000	34
92.3530000000	36
92.3830000000	37
92.4130000000	32
92.4430000000	39
92.4730000000	41
92.5030000000	34
92.5330000000	43
92.5630000000	37
92.5930000000	42
92.6230000000	42
92.6530000000	41
92.6830000000	29
92.7130000000	50
92.7430000000	41
92.7730000000	46
92.8030000000	56
92.8330000000	40
92.8630000000	32
92.8930000000	34
92.9230000000	36
92.9530000000	37
92.9830000000	44
93.0130000000	38
93.0430000000	36
93.0730000000	37
93.1030000000	27
93.1330000000	32
93.1630000000	42
93.1930000000	39
93.2230000000	37
93.2530000000	42
93.2830000000	46
93.3130000000	44
93.3430000000	45
93.3730000000	43
93.4030000000	41
93.4330000000	55
93.4630000000	32
93.4930000000	33
93.5230000000	43
93.5530000000	43
93.5830000000	40
93.6130000000	38
93.6430000000	37
93.6730000000	37
93.7030000000	50
93.7330000000	36
93.7630000000	38
93.7930000000	65
93.8230000000	37
93.8530000000	29
93.8830000000	45
93.9130000000	57
93.9430000000	38
93.9730000000	49
94.0030000000	36
94.0330000000	45
94.0630000000	46
94.0930000000	37
94.1230000000	51
94.1530000000	43
94.1830000000	38
94.2130000000	41
94.2430000000	41
94.2730000000	47
94.3030000000	45
94.3330000000	47
94.3630000000	27
94.3930000000	42
94.4230000000	50
94.4530000000	48
94.4830000000	43
94.5130000000	47
94.5430000000	41
94.5730000000	36
94.6030000000	43
94.6330000000	43
94.6630000000	39
94.6930000000	47
94.7230000000	46
94.7530000000	34
94.7830000000	54
94.8130000000	37
94.8430000000	39
94.8730000000	47
94.9030000000	45
94.9330000000	36
94.9630000000	42
94.9930000000	42
95.0230000000	44
95.0530000000	43
95.0830000000	55
95.1130000000	44
95.1430000000	36
95.1730000000	46
95.2030000000	44
95.2330000000	34
95.2630000000	47
95.2930000000	32
95.3230000000	53
95.3530000000	40
95.3830000000	39
95.4130000000	41
95.4430000000	33
95.4730000000	34
95.5030000000	39
95.5330000000	44
95.5630000000	40
95.5930000000	44
95.6230000000	38
95.6530000000	58
95.6830000000	36
95.7130000000	39
95.7430000000	44
95.7730000000	33
95.8030000000	45
95.8330000000	47
95.8630000000	43
95.8930000000	40
95.9230000000	35
95.9530000000	36
95.9830000000	40
96.0130000000	42
96.0430000000	40
96.0730000000	49
96.1030000000	52
96.1330000000	38
96.1630000000	54
96.1930000000	47
96.2230000000	38
96.2530000000	38
96.2830000000	34
96.3130000000	45
96.3430000000	48
96.3730000000	46
96.4030000000	41
96.4330000000	47
96.4630000000	43
96.4930000000	40
96.5230000000	52
96.5530000000	40
96.5830000000	38
96.6130000000	31
96.6430000000	43
96.6730000000	36
96.7030000000	41
96.7330000000	47
96.7630000000	32
96.7930000000	34
96.8230000000	40
96.8530000000	34
96.8830000000	32
96.9130000000	30
96.9430000000	26
96.9730000000	43
97.0030000000	45
97.0330000000	50
97.0630000000	31
97.0930000000	27
97.1230000000	35
97.1530000000	32
97.1830000000	45
97.2130000000	49
97.2430000000	46
97.2730000000	38
97.3030000000	31
97.3330000000	36
97.3630000000	41
97.3930000000	48
97.4230000000	48
97.4530000000	41
97.4830000000	38
97.5130000000	31
97.5430000000	48
97.5730000000	44
97.6030000000	45
97.6330000000	44
97.6630000000	41
97.6930000000	39
97.7230000000	31
97.7530000000	45
97.7830000000	43
97.8130000000	45
97.8430000000	46
97.8730000000	39
97.9030000000	38
97.9330000000	48
97.9630000000	34
97.9930000000	39
98.0230000000	42
98.0530000000	39
98.0830000000	42
98.1130000000	42
98.1430000000	46
98.1730000000	43
98.2030000000	42
98.2330000000	40
98.2630000000	41
98.2930000000	37
98.3230000000	45
98.3530000000	52
98.3830000000	36
98.4130000000	37
98.4430000000	35
98.4730000000	44
98.5030000000	36
98.5330000000	45
98.5630000000	43
98.5930000000	42
98.6230000000	42
98.6530000000	38
98.6830000000	31
98.7130000000	39
98.7430000000	42
98.7730000000	38
98.8030000000	41
98.8330000000	44
98.8630000000	42
98.8930000000	34
98.9230000000	51
98.9530000000	40
98.9830000000	44
99.0130000000	37
99.0430000000	40
99.0730000000	40
99.1030000000	32
99.1330000000	37
99.1630000000	46
99.1930000000	45
99.2230000000	45
99.2530000000	42
99.2830000000	33
99.3130000000	41
99.3430000000	37
99.3730000000	46
99.4030000000	36
99.4330000000	39
99.4630000000	30
99.4930000000	30
99.5230000000	45
99.5530000000	45
99.5830000000	41
99.6130000000	42
99.6430000000	36
99.6730000000	48
99.7030000000	31
99.7330000000	30
99.7630000000	40
99.7930000000	46
99.8230000000	41
99.8530000000	46
99.8830000000	50
99.9130000000	33
99.9430000000	42
99.9730000000	46
100.0030000000	31
100.0330000000	37
100.0630000000	43
100.0930000000	53
100.1230000000	48
100.1530000000	46
100.1830000000	46
100.2130000000	36
100.2430000000	47
100.2730000000	45
100.3030000000	39
100.3330000000	40
100.3630000000	49
100.3930000000	38
100.4230000000	41
100.4530000000	43
100.4830000000	38
100.5130000000	38
100.5430000000	32
100.5730000000	46
100.6030000000	34
100.6330000000	37
100.6630000000	30
100.6930000000	36
100.7230000000	37
100.7530000000	39
100.7830000000	36
100.8130000000	42
100.8430000000	41
100.8730000000	46
100.9030000000	37
100.9330000000	40
100.9630000000	45
100.9930000000	42
101.0230000000	27
101.0530000000	36
101.0830000000	35
101.1130000000	32
101.1430000000	36
101.1730000000	47
101.2030000000	36
101.2330000000	31
101.2630000000	35
101.2930000000	37
101.3230000000	46
101.3530000000	44
101.3830000000	53
101.4130000000	48
101.4430000000	41
101.4730000000	42
101.5030000000	40
101.5330000000	37
101.5630000000	36
101.5930000000	39
101.6230000000	42
101.6530000000	41
101.6830000000	42
101.7130000000	44
101.7430000000	38
101.7730000000	37
101.8030000000	45
101.8330000000	34
101.8630000000	39
101.8930000000	38
101.9230000000	44
101.9530000000	41
101.9830000000	44
102.0130000000	36
102.0430000000	38
102.0730000000	41
102.1030000000	37
102.1330000000	49
102.1630000000	39
102.1930000000	31
102.2230000000	47
102.2530000000	45
102.2830000000	41
102.3130000000	38
102.3430000000	36
102.3730000000	36
102.4030000000	46
102.4330000000	38
102.4630000000	38
102.4930000000	42
102.5230000000	38
102.5530000000	45
102.5830000000	32
102.6130000000	36
102.6430000000	45
102.6730000000	30
102.7030000000	44
102.7330000000	44
102.7630000000	44
102.7930000000	27
102.8230000000	27
102.8530000000	30
102.8830000000	42
102.9130000000	47
102.9430000000	36
102.9730000000	37
103.0030000000	43
103.0330000000	36
103.0630000000	38
103.0930000000	42
103.1230000000	45
103.1530000000	47
103.1830000000	41
103.2130000000	38
103.2430000000	35
103.2730000000	35
103.3030000000	35
103.3330000000	29
103.3630000000	45
103.3930000000	36
103.4230000000	45
103.4530000000	48
103.4830000000	35
103.5130000000	41
103.5430000000	39
103.5730000000	45
103.6030000000	47
103.6330000000	41
103.6630000000	39
103.6930000000	36
103.7230000000	51
103.7530000000	46
103.7830000000	37
103.8130000000	49
103.8430000000	44
103.8730000000	53
103.9030000000	44
103.9330000000	34
103.9630000000	43
103.9930000000	43
104.0230000000	35
104.0530000000	33
104.0830000000	37
104.1130000000	46
104.1430000000	39
104.1730000000	41
104.2030000000	33
104.2330000000	30
104.2630000000	35
104.2930000000	38
104.3230000000	48
104.3530000000	44
104.3830000000	41
104.4130000000	47
104.4430000000	45
104.4730000000	42
104.5030000000	34
104.5330000000	43
104.5630000000	39
104.5930000000	34
104.6230000000	36
104.6530000000	51
104.6830000000	40
104.7130000000	38
104.7430000000	33
104.7730000000	44
104.8030000000	45
104.8330000000	36
104.8630000000	38
104.8930000000	41
104.9230000000	33
104.9530000000	38
104.9830000000	33
105.0130000000	33
105.0430000000	47
105.0730000000	44
105.1030000000	32
105.1330000000	32
105.1630000000	34
105.1930000000	29
105.2230000000	30
105.2530000000	32
105.2830000000	48
105.3130000000	36
105.3430000000	31
105.3730000000	39
105.4030000000	35
105.4330000000	33
105.4630000000	34
105.4930000000	39
105.5230000000	34
105.5530000000	45
105.5830000000	31
105.6130000000	31
105.6430000000	41
105.6730000000	41
105.7030000000	33
105.7330000000	39
105.7630000000	30
105.7930000000	36
105.8230000000	31
105.8530000000	40
105.8830000000	49
105.9130000000	35
105.9430000000	35
105.9730000000	40
106.0030000000	52
106.0330000000	39
106.0630000000	35
106.0930000000	38
106.1230000000	36
106.1530000000	36
106.1830000000	35
106.2130000000	37
106.2430000000	36
106.2730000000	29
106.3030000000	41
106.3330000000	42
106.3630000000	37
106.3930000000	30
106.4230000000	40
106.4530000000	45
106.4830000000	35
106.5130000000	33
106.5430000000	43
106.5730000000	37
106.6030000000	49
106.6330000000	42
106.6630000000	37
106.6930000000	36
106.7230000000	35
106.7530000000	29
106.7830000000	53
106.8130000000	43
106.8430000000	30
106.8730000000	42
106.9030000000	49
106.9330000000	25
106.9630000000	42
106.9930000000	29
107.0230000000	39
107.0530000000	33
107.0830000000	34
107.1130000000	45
107.1430000000	29
107.1730000000	42
107.2030000000	37
107.2330000000	38
107.2630000000	43
107.2930000000	34
107.3230000000	36
107.3530000000	36
107.3830000000	42
107.4130000000	33
107.4430000000	36
107.4730000000	40
107.5030000000	40
107.5330000000	34
107.5630000000	41
107.5930000000	48
107.6230000000	46
107.6530000000	45
107.6830000000	34
107.7130000000	48
107.7430000000	52
107.7730000000	43
107.8030000000	40
107.8330000000	45
107.8630000000	39
107.8930000000	29
107.9230000000	38
107.9530000000	35
107.9830000000	28
108.0130000000	42
108.0430000000	42
108.0730000000	36
108.1030000000	38
108.1330000000	43
108.1630000000	35
108.1930000000	42
108.2230000000	33
108.2530000000	40
108.2830000000	36
108.3130000000	51
108.3430000000	29
108.3730000000	35
108.4030000000	46
108.4330000000	30
108.4630000000	44
108.4930000000	48
108.5230000000	39
108.5530000000	40
108.5830000000	38
108.6130000000	36
108.6430000000	37
108.6730000000	43
108.7030000000	42
108.7330000000	36
108.7630000000	44
108.7930000000	33
108.8230000000	35
108.8530000000	40
108.8830000000	22
108.9130000000	29
108.9430000000	38
108.9730000000	47
109.0030000000	43
109.0330000000	27
109.0630000000	33
109.0930000000	35
109.1230000000	36
109.1530000000	35
109.1830000000	32
109.2130000000	33
109.2430000000	35
109.2730000000	40
109.3030000000	34
109.3330000000	24
109.3630000000	44
109.3930000000	31
109.4230000000	34
109.4530000000	39
109.4830000000	23
109.5130000000	36
109.5430000000	30
109.5730000000	26
109.6030000000	38
109.6330000000	34
109.6630000000	40
109.6930000000	42
109.7230000000	35
109.7530000000	41
109.7830000000	34
109.8130000000	29
109.8430000000	36
109.8730000000	38
109.9030000000	33
109.9330000000	31
109.9630000000	44
109.9930000000	48
110.0230000000	33
110.0530000000	42
110.0830000000	39
110.1130000000	40
110.1430000000	32
110.1730000000	44
110.2030000000	40
110.2330000000	45
110.2630000000	43
110.2930000000	44
110.3230000000	44
110.3530000000	45
110.3830000000	35
110.4130000000	45
110.4430000000	40
110.4730000000	42
110.5030000000	45
110.5330000000	44
110.5630000000	36
110.5930000000	37
110.6230000000	42
110.6530000000	31
110.6830000000	25
110.7130000000	47
110.7430000000	44
110.7730000000	51
110.8030000000	38
110.8330000000	30
110.8630000000	46
110.8930000000	34
110.9230000000	47
110.9530000000	46
110.9830000000	37
111.0130000000	36
111.0430000000	38
111.0730000000	39
111.1030000000	37
111.1330000000	37
111.1630000000	39
111.1930000000	43
111.2230000000	43
111.2530000000	41
111.2830000000	51
111.3130000000	46
111.3430000000	45
111.3730000000	35
111.4030000000	49
111.4330000000	43
111.4630000000	30
111.4930000000	31
111.5230000000	34
111.5530000000	43
111.5830000000	36
111.6130000000	41
111.6430000000	42
111.6730000000	29
111.7030000000	31
111.7330000000	38
111.7630000000	30
111.7930000000	41
111.8230000000	45
111.8530000000	34
111.8830000000	46
111.9130000000	59
111.9430000000	41
111.9730000000	41
112.0030000000	46
112.0330000000	37
112.0630000000	37
112.0930000000	47
112.1230000000	40
112.1530000000	41
112.1830000000	49
112.2130000000	29
112.2430000000	41
112.2730000000	44
112.3030000000	46
112.3330000000	30
112.3630000000	35
112.3930000000	35
112.4230000000	42
112.4530000000	42
112.4830000000	33
112.5130000000	40
112.5430000000	44
112.5730000000	41
112.6030000000	48
112.6330000000	44
112.6630000000	46
112.6930000000	35
112.7230000000	30
112.7530000000	39
112.7830000000	45
112.8130000000	48
112.8430000000	44
112.8730000000	27
112.9030000000	46
112.9330000000	45
112.9630000000	43
112.9930000000	33
113.0230000000	45
113.0530000000	43
113.0830000000	32
113.1130000000	39
113.1430000000	35
113.1730000000	36
113.2030000000	34
113.2330000000	38
113.2630000000	40
113.2930000000	29
113.3230000000	41
113.3530000000	45
113.3830000000	40
113.4130000000	39
113.4430000000	37
113.4730000000	40
113.5030000000	51
113.5330000000	42
113.5630000000	33
113.5930000000	29
113.6230000000	36
113.6530000000	32
113.6830000000	47
113.7130000000	40
113.7430000000	43
113.7730000000	43
113.8030000000	28
113.8330000000	35
113.8630000000	40
113.8930000000	42
113.9230000000	47
113.9530000000	40
113.9830000000	51
114.0130000000	57
114.0430000000	30
114.0730000000	46
114.1030000000	41
114.1330000000	54
114.1630000000	50
114.1930000000	43
114.2230000000	31
114.2530000000	43
114.2830000000	52
114.3130000000	35
114.3430000000	47
114.3730000000	40
114.4030000000	38
114.4330000000	33
114.4630000000	1
114.4930000000	1
114.5230000000	1
114.5530000000	1
114.5830000000	1
