0.3130000000	1
0.3430000000	1
0.3730000000	1
0.4030000000	1
0.4330000000	1
0.4630000000	1
0.4930000000	1
0.5230000000	1
0.5530000000	1
0.5830000000	1
0.6130000000	3
0.6430000000	1
0.6730000000	1
0.7030000000	2
0.7330000000	1
0.7630000000	2
0.7930000000	1
0.8230000000	1
0.8530000000	1
0.8830000000	1
0.9130000000	1
0.9430000000	1
0.9730000000	1
1.0030000000	1
1.0330000000	2
1.0630000000	1
1.0930000000	1
1.1230000000	1
1.1530000000	2
1.1830000000	1
1.2130000000	1
1.2430000000	1
1.2730000000	1
1.3030000000	1
1.3330000000	1
1.3630000000	1
1.3930000000	1
1.4230000000	1
1.4530000000	1
1.4830000000	1
1.5130000000	1
1.5430000000	1
1.5730000000	1
1.6030000000	1
1.6330000000	1
1.6630000000	1
1.6930000000	1
1.7230000000	1
1.7530000000	1
1.7830000000	1
1.8130000000	1
1.8430000000	2
1.8730000000	1
1.9030000000	1
1.9330000000	1
1.9630000000	1
1.9930000000	1
2.0230000000	1
2.0530000000	1
2.0830000000	1
2.1130000000	2
2.1430000000	2
2.1730000000	1
2.2030000000	1
2.2330000000	2
2.2630000000	1
2.2930000000	2
2.3230000000	2
2.3530000000	1
2.3830000000	1
2.4130000000	1
2.4430000000	1
2.4730000000	2
2.5030000000	2
2.5330000000	1
2.5630000000	1
2.5930000000	1
2.6230000000	2
2.6530000000	2
2.6830000000	1
2.7130000000	2
2.7430000000	3
2.7730000000	4
2.8030000000	1
2.8330000000	1
2.8630000000	1
2.8930000000	1
2.9230000000	2
2.9530000000	2
2.9830000000	1
3.0130000000	2
3.0430000000	3
3.0730000000	2
3.1030000000	1
3.1330000000	3
3.1630000000	2
3.1930000000	2
3.2230000000	1
3.2530000000	2
3.2830000000	2
3.3130000000	4
3.3430000000	3
3.3730000000	3
3.4030000000	2
3.4330000000	1
3.4630000000	2
3.4930000000	1
3.5230000000	1
3.5530000000	1
3.5830000000	2
3.6130000000	1
3.6430000000	1
3.6730000000	1
3.7030000000	1
3.7330000000	1
3.7630000000	2
3.7930000000	5
3.8230000000	1
3.8530000000	4
3.8830000000	2
3.9130000000	1
3.9430000000	4
3.9730000000	5
4.0030000000	3
4.0330000000	3
4.0630000000	3
4.0930000000	3
4.1230000000	2
4.1530000000	3
4.1830000000	4
4.2130000000	3
4.2430000000	5
4.2730000000	8
4.3030000000	8
4.3330000000	6
4.3630000000	5
4.3930000000	4
4.4230000000	7
4.4530000000	12
4.4830000000	9
4.5130000000	25
4.5430000000	20
4.5730000000	46
4.6030000000	69
4.6330000000	100
4.6630000000	111
4.6930000000	110
4.7230000000	118
4.7530000000	138
4.7830000000	122
4.8130000000	112
4.8430000000	124
4.8730000000	151
4.9030000000	158
4.9330000000	136
4.9630000000	127
4.9930000000	146
5.0230000000	148
5.0530000000	127
5.0830000000	155
5.1130000000	146
5.1430000000	139
5.1730000000	134
5.2030000000	149
5.2330000000	152
5.2630000000	148
5.2930000000	114
5.3230000000	160
5.3530000000	145
5.3830000000	140
5.4130000000	149
5.4430000000	167
5.4730000000	135
5.5030000000	146
5.5330000000	149
5.5630000000	145
5.5930000000	152
5.6230000000	149
5.6530000000	162
5.6830000000	151
5.7130000000	133
5.7430000000	140
5.7730000000	147
5.8030000000	145
5.8330000000	147
5.8630000000	142
5.8930000000	133
5.9230000000	175
5.9530000000	139
5.9830000000	144
6.0130000000	135
6.0430000000	159
6.0730000000	154
6.1030000000	142
6.1330000000	132
6.1630000000	147
6.1930000000	164
6.2230000000	147
6.2530000000	138
6.2830000000	148
6.3130000000	163
6.3430000000	140
6.3730000000	142
6.4030000000	148
6.4330000000	147
6.4630000000	139
6.4930000000	142
6.5230000000	132
6.5530000000	161
6.5830000000	146
6.6130000000	148
6.6430000000	167
6.6730000000	155
6.7030000000	131
6.7330000000	138
6.7630000000	141
6.7930000000	153
6.8230000000	137
6.8530000000	167
6.8830000000	171
6.9130000000	153
6.9430000000	149
6.9730000000	157
7.0030000000	143
7.0330000000	145
7.0630000000	139
7.0930000000	133
7.1230000000	120
7.1530000000	148
7.1830000000	169
7.2130000000	168
7.2430000000	135
7.2730000000	138
7.3030000000	157
7.3330000000	147
7.3630000000	136
7.3930000000	132
7.4230000000	150
7.4530000000	146
7.4830000000	154
7.5130000000	165
7.5430000000	141
7.5730000000	143
7.6030000000	143
7.6330000000	139
7.6630000000	147
7.6930000000	156
7.7230000000	142
7.7530000000	134
7.7830000000	146
7.8130000000	145
7.8430000000	138
7.8730000000	133
7.9030000000	139
7.9330000000	134
7.9630000000	141
7.9930000000	166
8.0230000000	157
8.0530000000	153
8.0830000000	136
8.1130000000	134
8.1430000000	140
8.1730000000	159
8.2030000000	142
8.2330000000	139
8.2630000000	150
8.2930000000	172
8.3230000000	138
8.3530000000	160
8.3830000000	145
8.4130000000	161
8.4430000000	140
8.4730000000	157
8.5030000000	153
8.5330000000	157
8.5630000000	148
8.5930000000	134
8.6230000000	149
8.6530000000	138
8.6830000000	145
8.7130000000	130
8.7430000000	138
8.7730000000	142
8.8030000000	144
8.8330000000	154
8.8630000000	149
8.8930000000	146
8.9230000000	131
8.9530000000	147
8.9830000000	103
9.0130000000	148
9.0430000000	147
9.0730000000	140
9.1030000000	140
9.1330000000	151
9.1630000000	140
9.1930000000	147
9.2230000000	128
9.2530000000	136
9.2830000000	159
9.3130000000	129
9.3430000000	131
9.3730000000	140
9.4030000000	147
9.4330000000	140
9.4630000000	133
9.4930000000	147
9.5230000000	146
9.5530000000	138
9.5830000000	143
9.6130000000	143
9.6430000000	145
9.6730000000	145
9.7030000000	169
9.7330000000	146
9.7630000000	133
9.7930000000	159
9.8230000000	142
9.8530000000	133
9.8830000000	162
9.9130000000	141
9.9430000000	162
9.9730000000	148
10.0030000000	148
10.0330000000	183
10.0630000000	140
10.0930000000	144
10.1230000000	140
10.1530000000	144
10.1830000000	147
10.2130000000	143
10.2430000000	155
10.2730000000	161
10.3030000000	138
10.3330000000	136
10.3630000000	148
10.3930000000	147
10.4230000000	142
10.4530000000	144
10.4830000000	158
10.5130000000	166
10.5430000000	137
10.5730000000	153
10.6030000000	135
10.6330000000	141
10.6630000000	125
10.6930000000	142
10.7230000000	125
10.7530000000	139
10.7830000000	140
10.8130000000	141
10.8430000000	173
10.8730000000	173
10.9030000000	151
10.9330000000	150
10.9630000000	126
10.9930000000	145
11.0230000000	144
11.0530000000	142
11.0830000000	134
11.1130000000	143
11.1430000000	135
11.1730000000	135
11.2030000000	145
11.2330000000	158
11.2630000000	154
11.2930000000	144
11.3230000000	164
11.3530000000	150
11.3830000000	150
11.4130000000	143
11.4430000000	144
11.4730000000	145
11.5030000000	147
11.5330000000	142
11.5630000000	134
11.5930000000	148
11.6230000000	148
11.6530000000	165
11.6830000000	142
11.7130000000	132
11.7430000000	138
11.7730000000	144
11.8030000000	142
11.8330000000	138
11.8630000000	147
11.8930000000	152
11.9230000000	146
11.9530000000	174
11.9830000000	151
12.0130000000	153
12.0430000000	158
12.0730000000	164
12.1030000000	152
12.1330000000	142
12.1630000000	142
12.1930000000	139
12.2230000000	162
12.2530000000	173
12.2830000000	136
12.3130000000	160
12.3430000000	166
12.3730000000	149
12.4030000000	156
12.4330000000	151
12.4630000000	150
12.4930000000	147
12.5230000000	129
12.5530000000	119
12.5830000000	126
12.6130000000	139
12.6430000000	154
12.6730000000	154
12.7030000000	140
12.7330000000	135
12.7630000000	134
12.7930000000	132
12.8230000000	141
12.8530000000	137
12.8830000000	144
12.9130000000	155
12.9430000000	148
12.9730000000	143
13.0030000000	140
13.0330000000	152
13.0630000000	160
13.0930000000	145
13.1230000000	139
13.1530000000	154
13.1830000000	145
13.2130000000	153
13.2430000000	179
13.2730000000	128
13.3030000000	172
13.3330000000	144
13.3630000000	153
13.3930000000	139
13.4230000000	160
13.4530000000	136
13.4830000000	135
13.5130000000	148
13.5430000000	162
13.5730000000	147
13.6030000000	175
13.6330000000	132
13.6630000000	143
13.6930000000	149
13.7230000000	126
13.7530000000	150
13.7830000000	156
13.8130000000	121
13.8430000000	126
13.8730000000	137
13.9030000000	136
13.9330000000	150
13.9630000000	157
13.9930000000	147
14.0230000000	162
14.0530000000	144
14.0830000000	150
14.1130000000	138
14.1430000000	129
14.1730000000	154
14.2030000000	154
14.2330000000	157
14.2630000000	124
14.2930000000	142
14.3230000000	135
14.3530000000	139
14.3830000000	167
14.4130000000	135
14.4430000000	151
14.4730000000	158
14.5030000000	120
14.5330000000	128
14.5630000000	143
14.5930000000	149
14.6230000000	137
14.6530000000	147
14.6830000000	150
14.7130000000	147
14.7430000000	153
14.7730000000	144
14.8030000000	147
14.8330000000	146
14.8630000000	154
14.8930000000	188
14.9230000000	152
14.9530000000	153
14.9830000000	169
15.0130000000	161
15.0430000000	145
15.0730000000	150
15.1030000000	178
15.1330000000	157
15.1630000000	148
15.1930000000	183
15.2230000000	138
15.2530000000	163
15.2830000000	170
15.3130000000	152
15.3430000000	157
15.3730000000	148
15.4030000000	166
15.4330000000	177
15.4630000000	129
15.4930000000	167
15.5230000000	148
15.5530000000	152
15.5830000000	174
15.6130000000	130
15.6430000000	152
15.6730000000	162
15.7030000000	161
15.7330000000	129
15.7630000000	145
15.7930000000	139
15.8230000000	150
15.8530000000	151
15.8830000000	140
15.9130000000	150
15.9430000000	157
15.9730000000	153
16.0030000000	157
16.0330000000	128
16.0630000000	143
16.0930000000	122
16.1230000000	136
16.1530000000	152
16.1830000000	142
16.2130000000	133
16.2430000000	145
16.2730000000	133
16.3030000000	160
16.3330000000	134
16.3630000000	137
16.3930000000	138
16.4230000000	142
16.4530000000	146
16.4830000000	152
16.5130000000	143
16.5430000000	152
16.5730000000	134
16.6030000000	138
16.6330000000	172
16.6630000000	155
16.6930000000	141
16.7230000000	140
16.7530000000	138
16.7830000000	144
16.8130000000	140
16.8430000000	165
16.8730000000	150
16.9030000000	124
16.9330000000	133
16.9630000000	141
16.9930000000	130
17.0230000000	130
17.0530000000	146
17.0830000000	147
17.1130000000	139
17.1430000000	149
17.1730000000	151
17.2030000000	153
17.2330000000	135
17.2630000000	139
17.2930000000	131
17.3230000000	146
17.3530000000	153
17.3830000000	140
17.4130000000	132
17.4430000000	149
17.4730000000	158
17.5030000000	165
17.5330000000	165
17.5630000000	155
17.5930000000	151
17.6230000000	138
17.6530000000	142
17.6830000000	144
17.7130000000	136
17.7430000000	146
17.7730000000	146
17.8030000000	132
17.8330000000	131
17.8630000000	129
17.8930000000	122
17.9230000000	132
17.9530000000	154
17.9830000000	150
18.0130000000	157
18.0430000000	168
18.0730000000	135
18.1030000000	140
18.1330000000	145
18.1630000000	127
18.1930000000	144
18.2230000000	140
18.2530000000	155
18.2830000000	149
18.3130000000	150
18.3430000000	157
18.3730000000	156
18.4030000000	120
18.4330000000	129
18.4630000000	149
18.4930000000	145
18.5230000000	151
18.5530000000	150
18.5830000000	149
18.6130000000	155
18.6430000000	148
18.6730000000	142
18.7030000000	145
18.7330000000	126
18.7630000000	152
18.7930000000	148
18.8230000000	153
18.8530000000	143
18.8830000000	163
18.9130000000	147
18.9430000000	156
18.9730000000	152
19.0030000000	147
19.0330000000	144
19.0630000000	152
19.0930000000	167
19.1230000000	124
19.1530000000	166
19.1830000000	162
19.2130000000	151
19.2430000000	170
19.2730000000	134
19.3030000000	161
19.3330000000	163
19.3630000000	156
19.3930000000	176
19.4230000000	159
19.4530000000	184
19.4830000000	244
19.5130000000	229
19.5430000000	244
19.5730000000	298
19.6030000000	269
19.6330000000	257
19.6630000000	224
19.6930000000	199
19.7230000000	160
19.7530000000	142
19.7830000000	154
19.8130000000	159
19.8430000000	150
19.8730000000	165
19.9030000000	162
19.9330000000	147
19.9630000000	174
19.9930000000	165
20.0230000000	166
20.0530000000	174
20.0830000000	148
20.1130000000	165
20.1430000000	171
20.1730000000	144
20.2030000000	146
20.2330000000	157
20.2630000000	166
20.2930000000	173
20.3230000000	155
20.3530000000	162
20.3830000000	172
20.4130000000	160
20.4430000000	174
20.4730000000	174
20.5030000000	186
20.5330000000	165
20.5630000000	166
20.5930000000	172
20.6230000000	214
20.6530000000	238
20.6830000000	290
20.7130000000	434
20.7430000000	663
20.7730000000	1138
20.8030000000	1646
20.8330000000	2506
20.8630000000	4167
20.8930000000	6710
20.9230000000	7845
20.9530000000	6442
20.9830000000	4280
21.0130000000	2559
21.0430000000	1499
21.0730000000	918
21.1030000000	590
21.1330000000	335
21.1630000000	289
21.1930000000	193
21.2230000000	183
21.2530000000	206
21.2830000000	190
21.3130000000	159
21.3430000000	161
21.3730000000	160
21.4030000000	175
21.4330000000	182
21.4630000000	151
21.4930000000	142
21.5230000000	149
21.5530000000	146
21.5830000000	153
21.6130000000	150
21.6430000000	188
21.6730000000	151
21.7030000000	161
21.7330000000	157
21.7630000000	139
21.7930000000	138
21.8230000000	165
21.8530000000	157
21.8830000000	162
21.9130000000	162
21.9430000000	169
21.9730000000	147
22.0030000000	165
22.0330000000	165
22.0630000000	156
22.0930000000	174
22.1230000000	162
22.1530000000	173
22.1830000000	175
22.2130000000	163
22.2430000000	148
22.2730000000	158
22.3030000000	173
22.3330000000	160
22.3630000000	146
22.3930000000	166
22.4230000000	176
22.4530000000	183
22.4830000000	169
22.5130000000	156
22.5430000000	155
22.5730000000	176
22.6030000000	178
22.6330000000	170
22.6630000000	198
22.6930000000	202
22.7230000000	192
22.7530000000	192
22.7830000000	185
22.8130000000	172
22.8430000000	186
22.8730000000	167
22.9030000000	158
22.9330000000	154
22.9630000000	160
22.9930000000	190
23.0230000000	161
23.0530000000	170
23.0830000000	176
23.1130000000	166
23.1430000000	176
23.1730000000	186
23.2030000000	181
23.2330000000	164
23.2630000000	164
23.2930000000	171
23.3230000000	187
23.3530000000	155
23.3830000000	141
23.4130000000	170
23.4430000000	184
23.4730000000	169
23.5030000000	163
23.5330000000	167
23.5630000000	151
23.5930000000	149
23.6230000000	174
23.6530000000	151
23.6830000000	172
23.7130000000	173
23.7430000000	164
23.7730000000	176
23.8030000000	154
23.8330000000	158
23.8630000000	177
23.8930000000	162
23.9230000000	170
23.9530000000	151
23.9830000000	174
24.0130000000	166
24.0430000000	179
24.0730000000	157
24.1030000000	157
24.1330000000	150
24.1630000000	168
24.1930000000	175
24.2230000000	166
24.2530000000	151
24.2830000000	184
24.3130000000	182
24.3430000000	147
24.3730000000	165
24.4030000000	158
24.4330000000	174
24.4630000000	143
24.4930000000	179
24.5230000000	165
24.5530000000	179
24.5830000000	173
24.6130000000	170
24.6430000000	182
24.6730000000	185
24.7030000000	171
24.7330000000	183
24.7630000000	182
24.7930000000	172
24.8230000000	147
24.8530000000	165
24.8830000000	167
24.9130000000	166
24.9430000000	154
24.9730000000	158
25.0030000000	139
25.0330000000	180
25.0630000000	166
25.0930000000	149
25.1230000000	156
25.1530000000	138
25.1830000000	169
25.2130000000	157
25.2430000000	145
25.2730000000	176
25.3030000000	155
25.3330000000	164
25.3630000000	174
25.3930000000	181
25.4230000000	175
25.4530000000	158
25.4830000000	160
25.5130000000	182
25.5430000000	204
25.5730000000	222
25.6030000000	265
25.6330000000	236
25.6630000000	201
25.6930000000	181
25.7230000000	180
25.7530000000	181
25.7830000000	163
25.8130000000	160
25.8430000000	169
25.8730000000	151
25.9030000000	173
25.9330000000	170
25.9630000000	166
25.9930000000	181
26.0230000000	185
26.0530000000	179
26.0830000000	178
26.1130000000	150
26.1430000000	168
26.1730000000	194
26.2030000000	220
26.2330000000	283
26.2630000000	340
26.2930000000	430
26.3230000000	547
26.3530000000	666
26.3830000000	804
26.4130000000	834
26.4430000000	779
26.4730000000	541
26.5030000000	410
26.5330000000	354
26.5630000000	267
26.5930000000	241
26.6230000000	225
26.6530000000	221
26.6830000000	198
26.7130000000	168
26.7430000000	153
26.7730000000	165
26.8030000000	173
26.8330000000	163
26.8630000000	158
26.8930000000	157
26.9230000000	162
26.9530000000	168
26.9830000000	173
27.0130000000	160
27.0430000000	137
27.0730000000	147
27.1030000000	152
27.1330000000	142
27.1630000000	157
27.1930000000	175
27.2230000000	169
27.2530000000	155
27.2830000000	150
27.3130000000	159
27.3430000000	139
27.3730000000	144
27.4030000000	137
27.4330000000	141
27.4630000000	139
27.4930000000	156
27.5230000000	133
27.5530000000	154
27.5830000000	142
27.6130000000	132
27.6430000000	156
27.6730000000	151
27.7030000000	146
27.7330000000	151
27.7630000000	130
27.7930000000	133
27.8230000000	142
27.8530000000	155
27.8830000000	157
27.9130000000	154
27.9430000000	147
27.9730000000	154
28.0030000000	138
28.0330000000	138
28.0630000000	158
28.0930000000	133
28.1230000000	162
28.1530000000	162
28.1830000000	181
28.2130000000	164
28.2430000000	145
28.2730000000	147
28.3030000000	141
28.3330000000	163
28.3630000000	139
28.3930000000	160
28.4230000000	141
28.4530000000	155
28.4830000000	142
28.5130000000	165
28.5430000000	145
28.5730000000	138
28.6030000000	137
28.6330000000	154
28.6630000000	174
28.6930000000	156
28.7230000000	149
28.7530000000	154
28.7830000000	153
28.8130000000	160
28.8430000000	145
28.8730000000	159
28.9030000000	170
28.9330000000	158
28.9630000000	146
28.9930000000	143
29.0230000000	129
29.0530000000	137
29.0830000000	147
29.1130000000	149
29.1430000000	143
29.1730000000	145
29.2030000000	126
29.2330000000	152
29.2630000000	124
29.2930000000	128
29.3230000000	138
29.3530000000	127
29.3830000000	148
29.4130000000	132
29.4430000000	135
29.4730000000	127
29.5030000000	129
29.5330000000	124
29.5630000000	139
29.5930000000	145
29.6230000000	118
29.6530000000	121
29.6830000000	129
29.7130000000	139
29.7430000000	134
29.7730000000	123
29.8030000000	117
29.8330000000	123
29.8630000000	117
29.8930000000	134
29.9230000000	142
29.9530000000	136
29.9830000000	135
30.0130000000	144
30.0430000000	171
30.0730000000	154
30.1030000000	169
30.1330000000	179
30.1630000000	251
30.1930000000	335
30.2230000000	468
30.2530000000	656
30.2830000000	868
30.3130000000	1384
30.3430000000	1698
30.3730000000	1926
30.4030000000	1812
30.4330000000	1496
30.4630000000	1065
30.4930000000	719
30.5230000000	522
30.5530000000	313
30.5830000000	270
30.6130000000	204
30.6430000000	181
30.6730000000	160
30.7030000000	148
30.7330000000	147
30.7630000000	147
30.7930000000	156
30.8230000000	148
30.8530000000	162
30.8830000000	144
30.9130000000	136
30.9430000000	142
30.9730000000	119
31.0030000000	127
31.0330000000	125
31.0630000000	144
31.0930000000	131
31.1230000000	136
31.1530000000	155
31.1830000000	141
31.2130000000	141
31.2430000000	121
31.2730000000	134
31.3030000000	129
31.3330000000	161
31.3630000000	137
31.3930000000	136
31.4230000000	124
31.4530000000	115
31.4830000000	135
31.5130000000	136
31.5430000000	154
31.5730000000	132
31.6030000000	157
31.6330000000	196
31.6630000000	194
31.6930000000	226
31.7230000000	303
31.7530000000	376
31.7830000000	524
31.8130000000	646
31.8430000000	849
31.8730000000	870
31.9030000000	875
31.9330000000	758
31.9630000000	680
31.9930000000	674
32.0230000000	749
32.0530000000	769
32.0830000000	752
32.1130000000	724
32.1430000000	614
32.1730000000	446
32.2030000000	349
32.2330000000	277
32.2630000000	223
32.2930000000	179
32.3230000000	148
32.3530000000	130
32.3830000000	136
32.4130000000	138
32.4430000000	122
32.4730000000	124
32.5030000000	136
32.5330000000	123
32.5630000000	138
32.5930000000	137
32.6230000000	138
32.6530000000	112
32.6830000000	130
32.7130000000	121
32.7430000000	119
32.7730000000	126
32.8030000000	130
32.8330000000	137
32.8630000000	122
32.8930000000	136
32.9230000000	118
32.9530000000	127
32.9830000000	138
33.0130000000	153
33.0430000000	185
33.0730000000	245
33.1030000000	337
33.1330000000	520
33.1630000000	742
33.1930000000	1054
33.2230000000	1614
33.2530000000	2245
33.2830000000	2291
33.3130000000	1899
33.3430000000	1295
33.3730000000	862
33.4030000000	580
33.4330000000	363
33.4630000000	262
33.4930000000	184
33.5230000000	167
33.5530000000	144
33.5830000000	135
33.6130000000	129
33.6430000000	125
33.6730000000	119
33.7030000000	124
33.7330000000	122
33.7630000000	122
33.7930000000	113
33.8230000000	92
33.8530000000	93
33.8830000000	111
33.9130000000	104
33.9430000000	97
33.9730000000	112
34.0030000000	110
34.0330000000	109
34.0630000000	110
34.0930000000	120
34.1230000000	118
34.1530000000	115
34.1830000000	100
34.2130000000	111
34.2430000000	131
34.2730000000	105
34.3030000000	110
34.3330000000	103
34.3630000000	97
34.3930000000	117
34.4230000000	106
34.4530000000	97
34.4830000000	96
34.5130000000	102
34.5430000000	111
34.5730000000	96
34.6030000000	105
34.6330000000	108
34.6630000000	120
34.6930000000	106
34.7230000000	92
34.7530000000	99
34.7830000000	104
34.8130000000	103
34.8430000000	103
34.8730000000	100
34.9030000000	99
34.9330000000	103
34.9630000000	89
34.9930000000	97
35.0230000000	93
35.0530000000	106
35.0830000000	110
35.1130000000	123
35.1430000000	126
35.1730000000	130
35.2030000000	154
35.2330000000	174
35.2630000000	210
35.2930000000	243
35.3230000000	233
35.3530000000	203
35.3830000000	200
35.4130000000	178
35.4430000000	142
35.4730000000	122
35.5030000000	111
35.5330000000	119
35.5630000000	91
35.5930000000	94
35.6230000000	97
35.6530000000	101
35.6830000000	112
35.7130000000	106
35.7430000000	111
35.7730000000	121
35.8030000000	97
35.8330000000	107
35.8630000000	100
35.8930000000	91
35.9230000000	96
35.9530000000	96
35.9830000000	75
36.0130000000	107
36.0430000000	96
36.0730000000	98
36.1030000000	91
36.1330000000	110
36.1630000000	97
36.1930000000	98
36.2230000000	91
36.2530000000	97
36.2830000000	104
36.3130000000	98
36.3430000000	109
36.3730000000	115
36.4030000000	135
36.4330000000	154
36.4630000000	152
36.4930000000	186
36.5230000000	203
36.5530000000	238
36.5830000000	286
36.6130000000	325
36.6430000000	288
36.6730000000	296
36.7030000000	263
36.7330000000	217
36.7630000000	181
36.7930000000	139
36.8230000000	108
36.8530000000	100
36.8830000000	90
36.9130000000	99
36.9430000000	100
36.9730000000	95
37.0030000000	74
37.0330000000	75
37.0630000000	95
37.0930000000	94
37.1230000000	87
37.1530000000	92
37.1830000000	85
37.2130000000	96
37.2430000000	80
37.2730000000	94
37.3030000000	104
37.3330000000	84
37.3630000000	72
37.3930000000	87
37.4230000000	74
37.4530000000	95
37.4830000000	90
37.5130000000	92
37.5430000000	99
37.5730000000	88
37.6030000000	83
37.6330000000	90
37.6630000000	74
37.6930000000	85
37.7230000000	88
37.7530000000	88
37.7830000000	87
37.8130000000	92
37.8430000000	76
37.8730000000	95
37.9030000000	99
37.9330000000	79
37.9630000000	91
37.9930000000	94
38.0230000000	95
38.0530000000	96
38.0830000000	93
38.1130000000	93
38.1430000000	90
38.1730000000	81
38.2030000000	81
38.2330000000	95
38.2630000000	94
38.2930000000	88
38.3230000000	98
38.3530000000	97
38.3830000000	96
38.4130000000	87
38.4430000000	85
38.4730000000	87
38.5030000000	86
38.5330000000	81
38.5630000000	91
38.5930000000	90
38.6230000000	86
38.6530000000	99
38.6830000000	93
38.7130000000	72
38.7430000000	84
38.7730000000	89
38.8030000000	84
38.8330000000	94
38.8630000000	90
38.8930000000	94
38.9230000000	94
38.9530000000	74
38.9830000000	90
39.0130000000	107
39.0430000000	78
39.0730000000	102
39.1030000000	90
39.1330000000	93
39.1630000000	87
39.1930000000	84
39.2230000000	107
39.2530000000	96
39.2830000000	102
39.3130000000	93
39.3430000000	103
39.3730000000	87
39.4030000000	108
39.4330000000	124
39.4630000000	109
39.4930000000	126
39.5230000000	166
39.5530000000	172
39.5830000000	252
39.6130000000	344
39.6430000000	454
39.6730000000	583
39.7030000000	649
39.7330000000	672
39.7630000000	544
39.7930000000	468
39.8230000000	365
39.8530000000	271
39.8830000000	224
39.9130000000	146
39.9430000000	122
39.9730000000	96
40.0030000000	104
40.0330000000	86
40.0630000000	90
40.0930000000	103
40.1230000000	96
40.1530000000	88
40.1830000000	101
40.2130000000	73
40.2430000000	94
40.2730000000	95
40.3030000000	86
40.3330000000	87
40.3630000000	68
40.3930000000	92
40.4230000000	99
40.4530000000	93
40.4830000000	96
40.5130000000	75
40.5430000000	77
40.5730000000	75
40.6030000000	100
40.6330000000	84
40.6630000000	107
40.6930000000	99
40.7230000000	101
40.7530000000	76
40.7830000000	95
40.8130000000	96
40.8430000000	73
40.8730000000	91
40.9030000000	93
40.9330000000	74
40.9630000000	97
40.9930000000	105
41.0230000000	115
41.0530000000	87
41.0830000000	88
41.1130000000	94
41.1430000000	102
41.1730000000	95
41.2030000000	79
41.2330000000	82
41.2630000000	93
41.2930000000	87
41.3230000000	87
41.3530000000	93
41.3830000000	96
41.4130000000	90
41.4430000000	96
41.4730000000	95
41.5030000000	89
41.5330000000	89
41.5630000000	86
41.5930000000	90
41.6230000000	80
41.6530000000	94
41.6830000000	88
41.7130000000	88
41.7430000000	90
41.7730000000	80
41.8030000000	87
41.8330000000	98
41.8630000000	94
41.8930000000	79
41.9230000000	92
41.9530000000	97
41.9830000000	81
42.0130000000	84
42.0430000000	80
42.0730000000	78
42.1030000000	82
42.1330000000	87
42.1630000000	83
42.1930000000	96
42.2230000000	103
42.2530000000	110
42.2830000000	112
42.3130000000	107
42.3430000000	114
42.3730000000	143
42.4030000000	182
42.4330000000	196
42.4630000000	226
42.4930000000	232
42.5230000000	240
42.5530000000	263
42.5830000000	251
42.6130000000	220
42.6430000000	185
42.6730000000	154
42.7030000000	140
42.7330000000	137
42.7630000000	115
42.7930000000	102
42.8230000000	103
42.8530000000	125
42.8830000000	130
42.9130000000	135
42.9430000000	159
42.9730000000	222
43.0030000000	298
43.0330000000	402
43.0630000000	571
43.0930000000	725
43.1230000000	833
43.1530000000	831
43.1830000000	785
43.2130000000	711
43.2430000000	522
43.2730000000	378
43.3030000000	270
43.3330000000	210
43.3630000000	157
43.3930000000	118
43.4230000000	109
43.4530000000	110
43.4830000000	97
43.5130000000	103
43.5430000000	98
43.5730000000	92
43.6030000000	105
43.6330000000	107
43.6630000000	129
43.6930000000	108
43.7230000000	105
43.7530000000	131
43.7830000000	93
43.8130000000	91
43.8430000000	86
43.8730000000	73
43.9030000000	86
43.9330000000	105
43.9630000000	92
43.9930000000	86
44.0230000000	92
44.0530000000	73
44.0830000000	82
44.1130000000	75
44.1430000000	90
44.1730000000	93
44.2030000000	74
44.2330000000	82
44.2630000000	81
44.2930000000	98
44.3230000000	84
44.3530000000	67
44.3830000000	86
44.4130000000	89
44.4430000000	75
44.4730000000	75
44.5030000000	85
44.5330000000	95
44.5630000000	85
44.5930000000	104
44.6230000000	86
44.6530000000	86
44.6830000000	99
44.7130000000	81
44.7430000000	82
44.7730000000	111
44.8030000000	130
44.8330000000	133
44.8630000000	164
44.8930000000	221
44.9230000000	276
44.9530000000	394
44.9830000000	592
45.0130000000	708
45.0430000000	726
45.0730000000	682
45.1030000000	552
45.1330000000	453
45.1630000000	360
45.1930000000	240
45.2230000000	190
45.2530000000	132
45.2830000000	123
45.3130000000	109
45.3430000000	91
45.3730000000	84
45.4030000000	92
45.4330000000	87
45.4630000000	71
45.4930000000	76
45.5230000000	97
45.5530000000	89
45.5830000000	68
45.6130000000	65
45.6430000000	73
45.6730000000	73
45.7030000000	73
45.7330000000	85
45.7630000000	90
45.7930000000	71
45.8230000000	67
45.8530000000	80
45.8830000000	92
45.9130000000	98
45.9430000000	108
45.9730000000	121
46.0030000000	120
46.0330000000	130
46.0630000000	155
46.0930000000	141
46.1230000000	119
46.1530000000	123
46.1830000000	126
46.2130000000	117
46.2430000000	105
46.2730000000	63
46.3030000000	73
46.3330000000	85
46.3630000000	81
46.3930000000	84
46.4230000000	107
46.4530000000	99
46.4830000000	102
46.5130000000	115
46.5430000000	91
46.5730000000	82
46.6030000000	85
46.6330000000	82
46.6630000000	85
46.6930000000	65
46.7230000000	105
46.7530000000	102
46.7830000000	122
46.8130000000	154
46.8430000000	163
46.8730000000	224
46.9030000000	244
46.9330000000	278
46.9630000000	261
46.9930000000	212
47.0230000000	196
47.0530000000	143
47.0830000000	110
47.1130000000	100
47.1430000000	103
47.1730000000	67
47.2030000000	87
47.2330000000	74
47.2630000000	67
47.2930000000	66
47.3230000000	79
47.3530000000	78
47.3830000000	97
47.4130000000	79
47.4430000000	87
47.4730000000	74
47.5030000000	86
47.5330000000	84
47.5630000000	73
47.5930000000	85
47.6230000000	89
47.6530000000	78
47.6830000000	76
47.7130000000	66
47.7430000000	75
47.7730000000	85
47.8030000000	74
47.8330000000	80
47.8630000000	69
47.8930000000	67
47.9230000000	73
47.9530000000	57
47.9830000000	72
48.0130000000	62
48.0430000000	60
48.0730000000	71
48.1030000000	53
48.1330000000	53
48.1630000000	57
48.1930000000	60
48.2230000000	63
48.2530000000	64
48.2830000000	75
48.3130000000	62
48.3430000000	53
48.3730000000	59
48.4030000000	57
48.4330000000	56
48.4630000000	53
48.4930000000	58
48.5230000000	68
48.5530000000	66
48.5830000000	59
48.6130000000	53
48.6430000000	64
48.6730000000	60
48.7030000000	45
48.7330000000	52
48.7630000000	51
48.7930000000	59
48.8230000000	73
48.8530000000	64
48.8830000000	64
48.9130000000	66
48.9430000000	57
48.9730000000	61
49.0030000000	68
49.0330000000	66
49.0630000000	64
49.0930000000	67
49.1230000000	55
49.1530000000	56
49.1830000000	64
49.2130000000	62
49.2430000000	43
49.2730000000	60
49.3030000000	56
49.3330000000	73
49.3630000000	72
49.3930000000	63
49.4230000000	45
49.4530000000	57
49.4830000000	65
49.5130000000	63
49.5430000000	55
49.5730000000	60
49.6030000000	55
49.6330000000	53
49.6630000000	56
49.6930000000	76
49.7230000000	66
49.7530000000	67
49.7830000000	55
49.8130000000	68
49.8430000000	66
49.8730000000	74
49.9030000000	56
49.9330000000	60
49.9630000000	61
49.9930000000	70
50.0230000000	44
50.0530000000	72
50.0830000000	60
50.1130000000	63
50.1430000000	53
50.1730000000	60
50.2030000000	51
50.2330000000	57
50.2630000000	60
50.2930000000	71
50.3230000000	68
50.3530000000	73
50.3830000000	83
50.4130000000	62
50.4430000000	92
50.4730000000	81
50.5030000000	73
50.5330000000	66
50.5630000000	86
50.5930000000	76
50.6230000000	71
50.6530000000	70
50.6830000000	55
50.7130000000	56
50.7430000000	56
50.7730000000	47
50.8030000000	65
50.8330000000	53
50.8630000000	42
50.8930000000	70
50.9230000000	64
50.9530000000	51
50.9830000000	57
51.0130000000	61
51.0430000000	54
51.0730000000	54
51.1030000000	47
51.1330000000	55
51.1630000000	62
51.1930000000	55
51.2230000000	60
51.2530000000	60
51.2830000000	56
51.3130000000	52
51.3430000000	55
51.3730000000	61
51.4030000000	60
51.4330000000	59
51.4630000000	58
51.4930000000	58
51.5230000000	66
51.5530000000	55
51.5830000000	41
51.6130000000	52
51.6430000000	59
51.6730000000	51
51.7030000000	45
51.7330000000	50
51.7630000000	64
51.7930000000	57
51.8230000000	47
51.8530000000	76
51.8830000000	59
51.9130000000	46
51.9430000000	53
51.9730000000	61
52.0030000000	58
52.0330000000	66
52.0630000000	59
52.0930000000	64
52.1230000000	76
52.1530000000	81
52.1830000000	73
52.2130000000	66
52.2430000000	62
52.2730000000	56
52.3030000000	59
52.3330000000	46
52.3630000000	66
52.3930000000	62
52.4230000000	60
52.4530000000	51
52.4830000000	74
52.5130000000	59
52.5430000000	61
52.5730000000	65
52.6030000000	71
52.6330000000	70
52.6630000000	74
52.6930000000	64
52.7230000000	64
52.7530000000	68
52.7830000000	59
52.8130000000	65
52.8430000000	49
52.8730000000	53
52.9030000000	56
52.9330000000	53
52.9630000000	48
52.9930000000	58
53.0230000000	45
53.0530000000	44
53.0830000000	66
53.1130000000	58
53.1430000000	49
53.1730000000	51
53.2030000000	55
53.2330000000	58
53.2630000000	51
53.2930000000	66
53.3230000000	52
53.3530000000	63
53.3830000000	51
53.4130000000	53
53.4430000000	56
53.4730000000	54
53.5030000000	57
53.5330000000	53
53.5630000000	50
53.5930000000	54
53.6230000000	57
53.6530000000	60
53.6830000000	63
53.7130000000	78
53.7430000000	93
53.7730000000	112
53.8030000000	126
53.8330000000	130
53.8630000000	138
53.8930000000	122
53.9230000000	122
53.9530000000	96
53.9830000000	85
54.0130000000	84
54.0430000000	56
54.0730000000	68
54.1030000000	60
54.1330000000	59
54.1630000000	61
54.1930000000	46
54.2230000000	58
54.2530000000	55
54.2830000000	56
54.3130000000	59
54.3430000000	47
54.3730000000	58
54.4030000000	62
54.4330000000	60
54.4630000000	49
54.4930000000	43
54.5230000000	47
54.5530000000	50
54.5830000000	56
54.6130000000	54
54.6430000000	44
54.6730000000	57
54.7030000000	65
54.7330000000	64
54.7630000000	70
54.7930000000	54
54.8230000000	74
54.8530000000	96
54.8830000000	109
54.9130000000	114
54.9430000000	100
54.9730000000	74
55.0030000000	82
55.0330000000	91
55.0630000000	69
55.0930000000	72
55.1230000000	55
55.1530000000	44
55.1830000000	57
55.2130000000	60
55.2430000000	57
55.2730000000	69
55.3030000000	82
55.3330000000	75
55.3630000000	91
55.3930000000	108
55.4230000000	87
55.4530000000	108
55.4830000000	101
55.5130000000	103
55.5430000000	93
55.5730000000	80
55.6030000000	70
55.6330000000	59
55.6630000000	58
55.6930000000	56
55.7230000000	59
55.7530000000	63
55.7830000000	58
55.8130000000	56
55.8430000000	47
55.8730000000	53
55.9030000000	44
55.9330000000	51
55.9630000000	45
55.9930000000	43
56.0230000000	52
56.0530000000	49
56.0830000000	54
56.1130000000	62
56.1430000000	52
56.1730000000	58
56.2030000000	57
56.2330000000	46
56.2630000000	43
56.2930000000	34
56.3230000000	48
56.3530000000	50
56.3830000000	42
56.4130000000	48
56.4430000000	51
56.4730000000	50
56.5030000000	34
56.5330000000	41
56.5630000000	44
56.5930000000	44
56.6230000000	40
56.6530000000	48
56.6830000000	49
56.7130000000	56
56.7430000000	55
56.7730000000	51
56.8030000000	51
56.8330000000	64
56.8630000000	51
56.8930000000	44
56.9230000000	43
56.9530000000	64
56.9830000000	62
57.0130000000	59
57.0430000000	50
57.0730000000	48
57.1030000000	42
57.1330000000	61
57.1630000000	61
57.1930000000	56
57.2230000000	55
57.2530000000	50
57.2830000000	64
57.3130000000	51
57.3430000000	39
57.3730000000	48
57.4030000000	51
57.4330000000	40
57.4630000000	51
57.4930000000	46
57.5230000000	58
57.5530000000	60
57.5830000000	49
57.6130000000	42
57.6430000000	34
57.6730000000	48
57.7030000000	48
57.7330000000	59
57.7630000000	49
57.7930000000	40
57.8230000000	37
57.8530000000	52
57.8830000000	48
57.9130000000	47
57.9430000000	53
57.9730000000	46
58.0030000000	39
58.0330000000	46
58.0630000000	38
58.0930000000	50
58.1230000000	42
58.1530000000	48
58.1830000000	43
58.2130000000	62
58.2430000000	43
58.2730000000	44
58.3030000000	50
58.3330000000	51
58.3630000000	50
58.3930000000	43
58.4230000000	45
58.4530000000	39
58.4830000000	40
58.5130000000	45
58.5430000000	38
58.5730000000	43
58.6030000000	48
58.6330000000	35
58.6630000000	38
58.6930000000	44
58.7230000000	53
58.7530000000	37
58.7830000000	43
58.8130000000	35
58.8430000000	58
58.8730000000	46
58.9030000000	50
58.9330000000	51
58.9630000000	48
58.9930000000	47
59.0230000000	45
59.0530000000	47
59.0830000000	49
59.1130000000	47
59.1430000000	52
59.1730000000	50
59.2030000000	41
59.2330000000	47
59.2630000000	43
59.2930000000	53
59.3230000000	38
59.3530000000	37
59.3830000000	42
59.4130000000	42
59.4430000000	53
59.4730000000	44
59.5030000000	52
59.5330000000	49
59.5630000000	40
59.5930000000	45
59.6230000000	41
59.6530000000	46
59.6830000000	53
59.7130000000	46
59.7430000000	61
59.7730000000	49
59.8030000000	46
59.8330000000	40
59.8630000000	44
59.8930000000	60
59.9230000000	62
59.9530000000	55
59.9830000000	55
60.0130000000	50
60.0430000000	71
60.0730000000	84
60.1030000000	80
60.1330000000	100
60.1630000000	98
60.1930000000	99
60.2230000000	91
60.2530000000	85
60.2830000000	85
60.3130000000	79
60.3430000000	76
60.3730000000	60
60.4030000000	57
60.4330000000	47
60.4630000000	47
60.4930000000	45
60.5230000000	60
60.5530000000	43
60.5830000000	57
60.6130000000	51
60.6430000000	52
60.6730000000	57
60.7030000000	57
60.7330000000	39
60.7630000000	64
60.7930000000	37
60.8230000000	48
60.8530000000	41
60.8830000000	43
60.9130000000	49
60.9430000000	44
60.9730000000	51
61.0030000000	43
61.0330000000	63
61.0630000000	40
61.0930000000	52
61.1230000000	56
61.1530000000	64
61.1830000000	55
61.2130000000	52
61.2430000000	60
61.2730000000	60
61.3030000000	57
61.3330000000	57
61.3630000000	52
61.3930000000	71
61.4230000000	70
61.4530000000	68
61.4830000000	75
61.5130000000	98
61.5430000000	82
61.5730000000	96
61.6030000000	64
61.6330000000	95
61.6630000000	63
61.6930000000	74
61.7230000000	74
61.7530000000	58
61.7830000000	51
61.8130000000	49
61.8430000000	44
61.8730000000	47
61.9030000000	42
61.9330000000	38
61.9630000000	46
61.9930000000	52
62.0230000000	44
62.0530000000	43
62.0830000000	47
62.1130000000	45
62.1430000000	51
62.1730000000	52
62.2030000000	44
62.2330000000	54
62.2630000000	38
62.2930000000	49
62.3230000000	48
62.3530000000	44
62.3830000000	43
62.4130000000	45
62.4430000000	46
62.4730000000	40
62.5030000000	48
62.5330000000	40
62.5630000000	42
62.5930000000	44
62.6230000000	44
62.6530000000	48
62.6830000000	43
62.7130000000	33
62.7430000000	34
62.7730000000	49
62.8030000000	51
62.8330000000	44
62.8630000000	48
62.8930000000	47
62.9230000000	39
62.9530000000	56
62.9830000000	56
63.0130000000	40
63.0430000000	39
63.0730000000	45
63.1030000000	44
63.1330000000	44
63.1630000000	50
63.1930000000	56
63.2230000000	46
63.2530000000	53
63.2830000000	58
63.3130000000	55
63.3430000000	55
63.3730000000	40
63.4030000000	34
63.4330000000	45
63.4630000000	44
63.4930000000	42
63.5230000000	26
63.5530000000	35
63.5830000000	41
63.6130000000	45
63.6430000000	45
63.6730000000	48
63.7030000000	53
63.7330000000	40
63.7630000000	36
63.7930000000	37
63.8230000000	44
63.8530000000	27
63.8830000000	44
63.9130000000	42
63.9430000000	43
63.9730000000	43
64.0030000000	50
64.0330000000	44
64.0630000000	42
64.0930000000	42
64.1230000000	40
64.1530000000	49
64.1830000000	41
64.2130000000	44
64.2430000000	45
64.2730000000	38
64.3030000000	53
64.3330000000	47
64.3630000000	48
64.3930000000	44
64.4230000000	58
64.4530000000	49
64.4830000000	56
64.5130000000	52
64.5430000000	40
64.5730000000	50
64.6030000000	43
64.6330000000	54
64.6630000000	50
64.6930000000	51
64.7230000000	52
64.7530000000	52
64.7830000000	50
64.8130000000	47
64.8430000000	43
64.8730000000	48
64.9030000000	46
64.9330000000	42
64.9630000000	52
64.9930000000	46
65.0230000000	49
65.0530000000	54
65.0830000000	43
65.1130000000	42
65.1430000000	32
65.1730000000	36
65.2030000000	34
65.2330000000	57
65.2630000000	57
65.2930000000	43
65.3230000000	46
65.3530000000	50
65.3830000000	35
65.4130000000	49
65.4430000000	46
65.4730000000	49
65.5030000000	51
65.5330000000	46
65.5630000000	47
65.5930000000	51
65.6230000000	54
65.6530000000	43
65.6830000000	48
65.7130000000	50
65.7430000000	43
65.7730000000	49
65.8030000000	37
65.8330000000	46
65.8630000000	37
65.8930000000	58
65.9230000000	56
65.9530000000	49
65.9830000000	58
66.0130000000	60
66.0430000000	71
66.0730000000	97
66.1030000000	97
66.1330000000	116
66.1630000000	102
66.1930000000	106
66.2230000000	114
66.2530000000	117
66.2830000000	95
66.3130000000	86
66.3430000000	108
66.3730000000	77
66.4030000000	70
66.4330000000	76
66.4630000000	59
66.4930000000	59
66.5230000000	49
66.5530000000	40
66.5830000000	47
66.6130000000	47
66.6430000000	38
66.6730000000	45
66.7030000000	45
66.7330000000	46
66.7630000000	53
66.7930000000	46
66.8230000000	52
66.8530000000	39
66.8830000000	48
66.9130000000	52
66.9430000000	40
66.9730000000	51
67.0030000000	41
67.0330000000	40
67.0630000000	40
67.0930000000	55
67.1230000000	49
67.1530000000	47
67.1830000000	46
67.2130000000	42
67.2430000000	43
67.2730000000	38
67.3030000000	52
67.3330000000	32
67.3630000000	36
67.3930000000	44
67.4230000000	55
67.4530000000	51
67.4830000000	41
67.5130000000	36
67.5430000000	40
67.5730000000	34
67.6030000000	45
67.6330000000	55
67.6630000000	49
67.6930000000	53
67.7230000000	48
67.7530000000	41
67.7830000000	41
67.8130000000	43
67.8430000000	39
67.8730000000	41
67.9030000000	49
67.9330000000	34
67.9630000000	58
67.9930000000	41
68.0230000000	42
68.0530000000	54
68.0830000000	48
68.1130000000	47
68.1430000000	45
68.1730000000	45
68.2030000000	40
68.2330000000	49
68.2630000000	43
68.2930000000	58
68.3230000000	38
68.3530000000	32
68.3830000000	39
68.4130000000	40
68.4430000000	44
68.4730000000	46
68.5030000000	50
68.5330000000	38
68.5630000000	48
68.5930000000	44
68.6230000000	41
68.6530000000	47
68.6830000000	45
68.7130000000	50
68.7430000000	41
68.7730000000	39
68.8030000000	33
68.8330000000	48
68.8630000000	49
68.8930000000	42
68.9230000000	48
68.9530000000	46
68.9830000000	41
69.0130000000	64
69.0430000000	51
69.0730000000	37
69.1030000000	59
69.1330000000	53
69.1630000000	53
69.1930000000	54
69.2230000000	35
69.2530000000	45
69.2830000000	48
69.3130000000	41
69.3430000000	38
69.3730000000	45
69.4030000000	62
69.4330000000	41
69.4630000000	49
69.4930000000	55
69.5230000000	43
69.5530000000	39
69.5830000000	41
69.6130000000	60
69.6430000000	50
69.6730000000	45
69.7030000000	47
69.7330000000	46
69.7630000000	47
69.7930000000	53
69.8230000000	57
69.8530000000	38
69.8830000000	36
69.9130000000	36
69.9430000000	40
69.9730000000	47
70.0030000000	35
70.0330000000	46
70.0630000000	42
70.0930000000	46
70.1230000000	38
70.1530000000	40
70.1830000000	50
70.2130000000	55
70.2430000000	50
70.2730000000	37
70.3030000000	40
70.3330000000	37
70.3630000000	40
70.3930000000	49
70.4230000000	42
70.4530000000	54
70.4830000000	32
70.5130000000	37
70.5430000000	37
70.5730000000	37
70.6030000000	54
70.6330000000	42
70.6630000000	40
70.6930000000	48
70.7230000000	61
70.7530000000	42
70.7830000000	59
70.8130000000	50
70.8430000000	47
70.8730000000	58
70.9030000000	43
70.9330000000	42
70.9630000000	44
70.9930000000	52
71.0230000000	50
71.0530000000	39
71.0830000000	41
71.1130000000	45
71.1430000000	45
71.1730000000	37
71.2030000000	46
71.2330000000	50
71.2630000000	53
71.2930000000	45
71.3230000000	52
71.3530000000	50
71.3830000000	34
71.4130000000	44
71.4430000000	54
71.4730000000	46
71.5030000000	44
71.5330000000	43
71.5630000000	34
71.5930000000	28
71.6230000000	41
71.6530000000	40
71.6830000000	35
71.7130000000	51
71.7430000000	48
71.7730000000	36
71.8030000000	48
71.8330000000	50
71.8630000000	53
71.8930000000	57
71.9230000000	63
71.9530000000	72
71.9830000000	62
72.0130000000	62
72.0430000000	68
72.0730000000	67
72.1030000000	71
72.1330000000	60
72.1630000000	86
72.1930000000	72
72.2230000000	86
72.2530000000	95
72.2830000000	92
72.3130000000	70
72.3430000000	82
72.3730000000	65
72.4030000000	81
72.4330000000	79
72.4630000000	67
72.4930000000	67
72.5230000000	49
72.5530000000	55
72.5830000000	56
72.6130000000	58
72.6430000000	83
72.6730000000	86
72.7030000000	92
72.7330000000	110
72.7630000000	106
72.7930000000	122
72.8230000000	112
72.8530000000	122
72.8830000000	114
72.9130000000	93
72.9430000000	101
72.9730000000	77
73.0030000000	72
73.0330000000	86
73.0630000000	70
73.0930000000	57
73.1230000000	65
73.1530000000	61
73.1830000000	45
73.2130000000	62
73.2430000000	54
73.2730000000	48
73.3030000000	50
73.3330000000	45
73.3630000000	52
73.3930000000	47
73.4230000000	50
73.4530000000	41
73.4830000000	49
73.5130000000	41
73.5430000000	48
73.5730000000	44
73.6030000000	46
73.6330000000	47
73.6630000000	38
73.6930000000	42
73.7230000000	48
73.7530000000	42
73.7830000000	39
73.8130000000	46
73.8430000000	48
73.8730000000	41
73.9030000000	44
73.9330000000	52
73.9630000000	40
73.9930000000	43
74.0230000000	48
74.0530000000	42
74.0830000000	43
74.1130000000	33
74.1430000000	47
74.1730000000	45
74.2030000000	55
74.2330000000	46
74.2630000000	49
74.2930000000	40
74.3230000000	47
74.3530000000	41
74.3830000000	47
74.4130000000	49
74.4430000000	43
74.4730000000	40
74.5030000000	31
74.5330000000	44
74.5630000000	38
74.5930000000	43
74.6230000000	48
74.6530000000	51
74.6830000000	39
74.7130000000	46
74.7430000000	63
74.7730000000	45
74.8030000000	42
74.8330000000	52
74.8630000000	45
74.8930000000	45
74.9230000000	49
74.9530000000	46
74.9830000000	52
75.0130000000	47
75.0430000000	50
75.0730000000	43
75.1030000000	39
75.1330000000	51
75.1630000000	59
75.1930000000	38
75.2230000000	45
75.2530000000	46
75.2830000000	48
75.3130000000	54
75.3430000000	44
75.3730000000	38
75.4030000000	40
75.4330000000	47
75.4630000000	60
75.4930000000	55
75.5230000000	50
75.5530000000	34
75.5830000000	42
75.6130000000	47
75.6430000000	53
75.6730000000	70
75.7030000000	64
75.7330000000	68
75.7630000000	76
75.7930000000	85
75.8230000000	82
75.8530000000	65
75.8830000000	53
75.9130000000	49
75.9430000000	62
75.9730000000	65
76.0030000000	63
76.0330000000	47
76.0630000000	37
76.0930000000	45
76.1230000000	52
76.1530000000	43
76.1830000000	41
76.2130000000	43
76.2430000000	42
76.2730000000	49
76.3030000000	37
76.3330000000	41
76.3630000000	43
76.3930000000	43
76.4230000000	40
76.4530000000	40
76.4830000000	39
76.5130000000	45
76.5430000000	48
76.5730000000	37
76.6030000000	36
76.6330000000	33
76.6630000000	40
76.6930000000	53
76.7230000000	36
76.7530000000	37
76.7830000000	46
76.8130000000	34
76.8430000000	39
76.8730000000	31
76.9030000000	45
76.9330000000	38
76.9630000000	47
76.9930000000	52
77.0230000000	38
77.0530000000	39
77.0830000000	41
77.1130000000	31
77.1430000000	37
77.1730000000	45
77.2030000000	43
77.2330000000	28
77.2630000000	38
77.2930000000	39
77.3230000000	55
77.3530000000	49
77.3830000000	41
77.4130000000	46
77.4430000000	68
77.4730000000	57
77.5030000000	58
77.5330000000	52
77.5630000000	59
77.5930000000	56
77.6230000000	40
77.6530000000	54
77.6830000000	50
77.7130000000	40
77.7430000000	44
77.7730000000	51
77.8030000000	37
77.8330000000	55
77.8630000000	60
77.8930000000	48
77.9230000000	45
77.9530000000	51
77.9830000000	44
78.0130000000	46
78.0430000000	46
78.0730000000	43
78.1030000000	44
78.1330000000	39
78.1630000000	41
78.1930000000	44
78.2230000000	39
78.2530000000	40
78.2830000000	41
78.3130000000	42
78.3430000000	42
78.3730000000	36
78.4030000000	46
78.4330000000	39
78.4630000000	40
78.4930000000	48
78.5230000000	38
78.5530000000	39
78.5830000000	37
78.6130000000	38
78.6430000000	49
78.6730000000	51
78.7030000000	67
78.7330000000	45
78.7630000000	53
78.7930000000	52
78.8230000000	33
78.8530000000	32
78.8830000000	40
78.9130000000	35
78.9430000000	40
78.9730000000	42
79.0030000000	39
79.0330000000	37
79.0630000000	35
79.0930000000	45
79.1230000000	49
79.1530000000	29
79.1830000000	34
79.2130000000	41
79.2430000000	40
79.2730000000	38
79.3030000000	33
79.3330000000	58
79.3630000000	42
79.3930000000	30
79.4230000000	50
79.4530000000	34
79.4830000000	35
79.5130000000	42
79.5430000000	36
79.5730000000	35
79.6030000000	30
79.6330000000	42
79.6630000000	35
79.6930000000	35
79.7230000000	42
79.7530000000	52
79.7830000000	50
79.8130000000	47
79.8430000000	34
79.8730000000	43
79.9030000000	43
79.9330000000	34
79.9630000000	41
79.9930000000	43
80.0230000000	30
80.0530000000	43
80.0830000000	40
80.1130000000	42
80.1430000000	34
80.1730000000	47
80.2030000000	44
80.2330000000	39
80.2630000000	37
80.2930000000	37
80.3230000000	41
80.3530000000	29
80.3830000000	46
80.4130000000	49
80.4430000000	55
80.4730000000	56
80.5030000000	43
80.5330000000	42
80.5630000000	58
80.5930000000	55
80.6230000000	33
80.6530000000	46
80.6830000000	55
80.7130000000	46
80.7430000000	36
80.7730000000	42
80.8030000000	45
80.8330000000	38
80.8630000000	45
80.8930000000	36
80.9230000000	34
80.9530000000	35
80.9830000000	50
81.0130000000	41
81.0430000000	40
81.0730000000	34
81.1030000000	50
81.1330000000	36
81.1630000000	48
81.1930000000	40
81.2230000000	48
81.2530000000	44
81.2830000000	49
81.3130000000	48
81.3430000000	41
81.3730000000	37
81.4030000000	52
81.4330000000	53
81.4630000000	40
81.4930000000	53
81.5230000000	35
81.5530000000	39
81.5830000000	48
81.6130000000	41
81.6430000000	37
81.6730000000	40
81.7030000000	39
81.7330000000	47
81.7630000000	57
81.7930000000	31
81.8230000000	44
81.8530000000	30
81.8830000000	38
81.9130000000	38
81.9430000000	27
81.9730000000	34
82.0030000000	43
82.0330000000	48
82.0630000000	39
82.0930000000	37
82.1230000000	34
82.1530000000	28
82.1830000000	44
82.2130000000	28
82.2430000000	37
82.2730000000	41
82.3030000000	33
82.3330000000	39
82.3630000000	40
82.3930000000	37
82.4230000000	34
82.4530000000	32
82.4830000000	30
82.5130000000	37
82.5430000000	39
82.5730000000	39
82.6030000000	44
82.6330000000	44
82.6630000000	34
82.6930000000	41
82.7230000000	41
82.7530000000	54
82.7830000000	46
82.8130000000	49
82.8430000000	45
82.8730000000	41
82.9030000000	41
82.9330000000	45
82.9630000000	43
82.9930000000	39
83.0230000000	46
83.0530000000	45
83.0830000000	51
83.1130000000	46
83.1430000000	48
83.1730000000	49
83.2030000000	40
83.2330000000	56
83.2630000000	32
83.2930000000	47
83.3230000000	43
83.3530000000	38
83.3830000000	49
83.4130000000	43
83.4430000000	44
83.4730000000	50
83.5030000000	38
83.5330000000	39
83.5630000000	47
83.5930000000	43
83.6230000000	33
83.6530000000	38
83.6830000000	45
83.7130000000	32
83.7430000000	33
83.7730000000	36
83.8030000000	36
83.8330000000	38
83.8630000000	35
83.8930000000	30
83.9230000000	38
83.9530000000	44
83.9830000000	35
84.0130000000	36
84.0430000000	30
84.0730000000	37
84.1030000000	43
84.1330000000	47
84.1630000000	48
84.1930000000	37
84.2230000000	43
84.2530000000	39
84.2830000000	25
84.3130000000	35
84.3430000000	30
84.3730000000	38
84.4030000000	45
84.4330000000	37
84.4630000000	41
84.4930000000	29
84.5230000000	38
84.5530000000	33
84.5830000000	37
84.6130000000	41
84.6430000000	36
84.6730000000	28
84.7030000000	42
84.7330000000	36
84.7630000000	31
84.7930000000	40
84.8230000000	34
84.8530000000	30
84.8830000000	35
84.9130000000	46
84.9430000000	39
84.9730000000	38
85.0030000000	30
85.0330000000	46
85.0630000000	44
85.0930000000	35
85.1230000000	38
85.1530000000	33
85.1830000000	43
85.2130000000	39
85.2430000000	47
85.2730000000	35
85.3030000000	34
85.3330000000	35
85.3630000000	30
85.3930000000	30
85.4230000000	41
85.4530000000	50
85.4830000000	40
85.5130000000	52
85.5430000000	35
85.5730000000	39
85.6030000000	30
85.6330000000	46
85.6630000000	30
85.6930000000	32
85.7230000000	48
85.7530000000	37
85.7830000000	38
85.8130000000	35
85.8430000000	39
85.8730000000	47
85.9030000000	41
85.9330000000	33
85.9630000000	43
85.9930000000	36
86.0230000000	32
86.0530000000	30
86.0830000000	47
86.1130000000	40
86.1430000000	45
86.1730000000	30
86.2030000000	42
86.2330000000	35
86.2630000000	36
86.2930000000	41
86.3230000000	55
86.3530000000	39
86.3830000000	35
86.4130000000	38
86.4430000000	33
86.4730000000	33
86.5030000000	37
86.5330000000	35
86.5630000000	39
86.5930000000	40
86.6230000000	40
86.6530000000	42
86.6830000000	47
86.7130000000	53
86.7430000000	39
86.7730000000	39
86.8030000000	38
86.8330000000	36
86.8630000000	36
86.8930000000	38
86.9230000000	46
86.9530000000	45
86.9830000000	42
87.0130000000	36
87.0430000000	47
87.0730000000	48
87.1030000000	45
87.1330000000	44
87.1630000000	40
87.1930000000	49
87.2230000000	52
87.2530000000	44
87.2830000000	35
87.3130000000	31
87.3430000000	37
87.3730000000	40
87.4030000000	44
87.4330000000	37
87.4630000000	40
87.4930000000	44
87.5230000000	39
87.5530000000	45
87.5830000000	45
87.6130000000	47
87.6430000000	33
87.6730000000	36
87.7030000000	40
87.7330000000	39
87.7630000000	45
87.7930000000	38
87.8230000000	39
87.8530000000	29
87.8830000000	29
87.9130000000	38
87.9430000000	41
87.9730000000	52
88.0030000000	37
88.0330000000	53
88.0630000000	54
88.0930000000	25
88.1230000000	43
88.1530000000	41
88.1830000000	41
88.2130000000	40
88.2430000000	44
88.2730000000	58
88.3030000000	35
88.3330000000	37
88.3630000000	55
88.3930000000	40
88.4230000000	40
88.4530000000	34
88.4830000000	37
88.5130000000	40
88.5430000000	40
88.5730000000	37
88.6030000000	26
88.6330000000	39
88.6630000000	53
88.6930000000	39
88.7230000000	44
88.7530000000	25
88.7830000000	39
88.8130000000	35
88.8430000000	34
88.8730000000	57
88.9030000000	36
88.9330000000	41
88.9630000000	30
88.9930000000	46
89.0230000000	49
89.0530000000	27
89.0830000000	31
89.1130000000	44
89.1430000000	40
89.1730000000	33
89.2030000000	34
89.2330000000	43
89.2630000000	36
89.2930000000	50
89.3230000000	43
89.3530000000	30
89.3830000000	45
89.4130000000	52
89.4430000000	42
89.4730000000	41
89.5030000000	43
89.5330000000	43
89.5630000000	51
89.5930000000	47
89.6230000000	43
89.6530000000	50
89.6830000000	51
89.7130000000	50
89.7430000000	42
89.7730000000	37
89.8030000000	48
89.8330000000	46
89.8630000000	36
89.8930000000	39
89.9230000000	34
89.9530000000	36
89.9830000000	43
90.0130000000	27
90.0430000000	39
90.0730000000	35
90.1030000000	26
90.1330000000	43
90.1630000000	32
90.1930000000	38
90.2230000000	43
90.2530000000	38
90.2830000000	43
90.3130000000	35
90.3430000000	29
90.3730000000	36
90.4030000000	51
90.4330000000	39
90.4630000000	37
90.4930000000	31
90.5230000000	35
90.5530000000	45
90.5830000000	35
90.6130000000	45
90.6430000000	35
90.6730000000	42
90.7030000000	45
90.7330000000	44
90.7630000000	51
90.7930000000	33
90.8230000000	36
90.8530000000	24
90.8830000000	41
90.9130000000	53
90.9430000000	46
90.9730000000	43
91.0030000000	36
91.0330000000	36
91.0630000000	30
91.0930000000	46
91.1230000000	36
91.1530000000	31
91.1830000000	38
91.2130000000	39
91.2430000000	39
91.2730000000	36
91.3030000000	34
91.3330000000	45
91.3630000000	43
91.3930000000	40
91.4230000000	38
91.4530000000	38
91.4830000000	33
91.5130000000	33
91.5430000000	36
91.5730000000	42
91.6030000000	40
91.6330000000	32
91.6630000000	39
91.6930000000	42
91.7230000000	32
91.7530000000	43
91.7830000000	35
91.8130000000	35
91.8430000000	36
91.8730000000	28
91.9030000000	38
91.9330000000	37
91.9630000000	43
91.9930000000	44
92.0230000000	37
92.0530000000	39
92.0830000000	40
92.1130000000	42
92.1430000000	33
92.1730000000	35
92.2030000000	33
92.2330000000	26
92.2630000000	51
92.2930000000	40
92.3230000000	50
92.3530000000	39
92.3830000000	43
92.4130000000	49
92.4430000000	39
92.4730000000	37
92.5030000000	40
92.5330000000	39
92.5630000000	60
92.5930000000	41
92.6230000000	35
92.6530000000	37
92.6830000000	41
92.7130000000	44
92.7430000000	35
92.7730000000	32
92.8030000000	34
92.8330000000	29
92.8630000000	38
92.8930000000	36
92.9230000000	36
92.9530000000	48
92.9830000000	42
93.0130000000	43
93.0430000000	37
93.0730000000	28
93.1030000000	35
93.1330000000	38
93.1630000000	37
93.1930000000	39
93.2230000000	37
93.2530000000	35
93.2830000000	42
93.3130000000	47
93.3430000000	42
93.3730000000	40
93.4030000000	30
93.4330000000	39
93.4630000000	40
93.4930000000	43
93.5230000000	49
93.5530000000	42
93.5830000000	45
93.6130000000	37
93.6430000000	37
93.6730000000	34
93.7030000000	39
93.7330000000	43
93.7630000000	40
93.7930000000	37
93.8230000000	41
93.8530000000	37
93.8830000000	47
93.9130000000	32
93.9430000000	38
93.9730000000	35
94.0030000000	40
94.0330000000	43
94.0630000000	36
94.0930000000	34
94.1230000000	39
94.1530000000	37
94.1830000000	46
94.2130000000	46
94.2430000000	44
94.2730000000	30
94.3030000000	29
94.3330000000	37
94.3630000000	31
94.3930000000	41
94.4230000000	41
94.4530000000	37
94.4830000000	43
94.5130000000	42
94.5430000000	38
94.5730000000	34
94.6030000000	37
94.6330000000	33
94.6630000000	39
94.6930000000	38
94.7230000000	31
94.7530000000	49
94.7830000000	44
94.8130000000	44
94.8430000000	38
94.8730000000	41
94.9030000000	46
94.9330000000	36
94.9630000000	35
94.9930000000	39
95.0230000000	37
95.0530000000	44
95.0830000000	37
95.1130000000	36
95.1430000000	37
95.1730000000	47
95.2030000000	39
95.2330000000	41
95.2630000000	42
95.2930000000	38
95.3230000000	52
95.3530000000	38
95.3830000000	46
95.4130000000	37
95.4430000000	35
95.4730000000	39
95.5030000000	46
95.5330000000	34
95.5630000000	37
95.5930000000	35
95.6230000000	35
95.6530000000	37
95.6830000000	31
95.7130000000	33
95.7430000000	35
95.7730000000	40
95.8030000000	34
95.8330000000	34
95.8630000000	37
95.8930000000	37
95.9230000000	26
95.9530000000	32
95.9830000000	42
96.0130000000	36
96.0430000000	39
96.0730000000	46
96.1030000000	43
96.1330000000	43
96.1630000000	37
96.1930000000	35
96.2230000000	34
96.2530000000	39
96.2830000000	45
96.3130000000	41
96.3430000000	31
96.3730000000	36
96.4030000000	38
96.4330000000	36
96.4630000000	31
96.4930000000	33
96.5230000000	46
96.5530000000	31
96.5830000000	30
96.6130000000	31
96.6430000000	40
96.6730000000	37
96.7030000000	26
96.7330000000	42
96.7630000000	42
96.7930000000	32
96.8230000000	47
96.8530000000	36
96.8830000000	46
96.9130000000	45
96.9430000000	48
96.9730000000	33
97.0030000000	45
97.0330000000	44
97.0630000000	37
97.0930000000	28
97.1230000000	43
97.1530000000	30
97.1830000000	39
97.2130000000	40
97.2430000000	35
97.2730000000	37
97.3030000000	30
97.3330000000	41
97.3630000000	37
97.3930000000	30
97.4230000000	42
97.4530000000	54
97.4830000000	50
97.5130000000	28
97.5430000000	28
97.5730000000	27
97.6030000000	37
97.6330000000	50
97.6630000000	32
97.6930000000	40
97.7230000000	38
97.7530000000	44
97.7830000000	29
97.8130000000	41
97.8430000000	33
97.8730000000	36
97.9030000000	30
97.9330000000	42
97.9630000000	35
97.9930000000	34
98.0230000000	39
98.0530000000	34
98.0830000000	35
98.1130000000	45
98.1430000000	45
98.1730000000	39
98.2030000000	34
98.2330000000	30
98.2630000000	37
98.2930000000	40
98.3230000000	36
98.3530000000	37
98.3830000000	46
98.4130000000	32
98.4430000000	44
98.4730000000	40
98.5030000000	31
98.5330000000	53
98.5630000000	39
98.5930000000	32
98.6230000000	36
98.6530000000	43
98.6830000000	38
98.7130000000	39
98.7430000000	48
98.7730000000	40
98.8030000000	35
98.8330000000	37
98.8630000000	29
98.8930000000	43
98.9230000000	47
98.9530000000	30
98.9830000000	36
99.0130000000	24
99.0430000000	41
99.0730000000	51
99.1030000000	54
99.1330000000	33
99.1630000000	40
99.1930000000	35
99.2230000000	38
99.2530000000	35
99.2830000000	37
99.3130000000	30
99.3430000000	40
99.3730000000	28
99.4030000000	30
99.4330000000	38
99.4630000000	35
99.4930000000	37
99.5230000000	32
99.5530000000	42
99.5830000000	27
99.6130000000	34
99.6430000000	40
99.6730000000	31
99.7030000000	42
99.7330000000	32
99.7630000000	32
99.7930000000	40
99.8230000000	30
99.8530000000	21
99.8830000000	20
99.9130000000	31
99.9430000000	31
99.9730000000	31
100.0030000000	41
100.0330000000	39
100.0630000000	34
100.0930000000	37
100.1230000000	45
100.1530000000	45
100.1830000000	40
100.2130000000	36
100.2430000000	29
100.2730000000	34
100.3030000000	39
100.3330000000	30
100.3630000000	42
100.3930000000	32
100.4230000000	47
100.4530000000	40
100.4830000000	27
100.5130000000	40
100.5430000000	36
100.5730000000	33
100.6030000000	35
100.6330000000	39
100.6630000000	36
100.6930000000	33
100.7230000000	40
100.7530000000	37
100.7830000000	41
100.8130000000	35
100.8430000000	31
100.8730000000	32
100.9030000000	38
100.9330000000	42
100.9630000000	41
100.9930000000	34
101.0230000000	40
101.0530000000	39
101.0830000000	47
101.1130000000	36
101.1430000000	36
101.1730000000	40
101.2030000000	37
101.2330000000	35
101.2630000000	44
101.2930000000	32
101.3230000000	38
101.3530000000	32
101.3830000000	26
101.4130000000	47
101.4430000000	31
101.4730000000	30
101.5030000000	44
101.5330000000	40
101.5630000000	38
101.5930000000	30
101.6230000000	27
101.6530000000	41
101.6830000000	43
101.7130000000	33
101.7430000000	42
101.7730000000	34
101.8030000000	38
101.8330000000	42
101.8630000000	39
101.8930000000	38
101.9230000000	38
101.9530000000	36
101.9830000000	42
102.0130000000	38
102.0430000000	41
102.0730000000	33
102.1030000000	34
102.1330000000	51
102.1630000000	35
102.1930000000	41
102.2230000000	34
102.2530000000	35
102.2830000000	37
102.3130000000	39
102.3430000000	40
102.3730000000	36
102.4030000000	35
102.4330000000	26
102.4630000000	34
102.4930000000	43
102.5230000000	28
102.5530000000	35
102.5830000000	45
102.6130000000	39
102.6430000000	41
102.6730000000	39
102.7030000000	34
102.7330000000	45
102.7630000000	30
102.7930000000	29
102.8230000000	37
102.8530000000	26
102.8830000000	32
102.9130000000	36
102.9430000000	33
102.9730000000	37
103.0030000000	39
103.0330000000	27
103.0630000000	32
103.0930000000	32
103.1230000000	33
103.1530000000	47
103.1830000000	44
103.2130000000	38
103.2430000000	47
103.2730000000	41
103.3030000000	29
103.3330000000	39
103.3630000000	40
103.3930000000	40
103.4230000000	42
103.4530000000	59
103.4830000000	35
103.5130000000	31
103.5430000000	43
103.5730000000	34
103.6030000000	30
103.6330000000	30
103.6630000000	37
103.6930000000	44
103.7230000000	52
103.7530000000	37
103.7830000000	43
103.8130000000	42
103.8430000000	50
103.8730000000	39
103.9030000000	37
103.9330000000	43
103.9630000000	32
103.9930000000	49
104.0230000000	50
104.0530000000	38
104.0830000000	38
104.1130000000	33
104.1430000000	41
104.1730000000	35
104.2030000000	37
104.2330000000	43
104.2630000000	46
104.2930000000	36
104.3230000000	42
104.3530000000	37
104.3830000000	46
104.4130000000	45
104.4430000000	51
104.4730000000	44
104.5030000000	28
104.5330000000	38
104.5630000000	48
104.5930000000	49
104.6230000000	41
104.6530000000	38
104.6830000000	49
104.7130000000	40
104.7430000000	48
104.7730000000	49
104.8030000000	35
104.8330000000	39
104.8630000000	49
104.8930000000	41
104.9230000000	43
104.9530000000	47
104.9830000000	33
105.0130000000	38
105.0430000000	41
105.0730000000	31
105.1030000000	32
105.1330000000	40
105.1630000000	36
105.1930000000	25
105.2230000000	27
105.2530000000	28
105.2830000000	37
105.3130000000	32
105.3430000000	34
105.3730000000	31
105.4030000000	35
105.4330000000	37
105.4630000000	45
105.4930000000	42
105.5230000000	31
105.5530000000	38
105.5830000000	39
105.6130000000	35
105.6430000000	40
105.6730000000	36
105.7030000000	29
105.7330000000	39
105.7630000000	27
105.7930000000	39
105.8230000000	34
105.8530000000	41
105.8830000000	43
105.9130000000	40
105.9430000000	31
105.9730000000	45
106.0030000000	29
106.0330000000	41
106.0630000000	37
106.0930000000	28
106.1230000000	35
106.1530000000	34
106.1830000000	34
106.2130000000	32
106.2430000000	40
106.2730000000	31
106.3030000000	38
106.3330000000	29
106.3630000000	36
106.3930000000	30
106.4230000000	25
106.4530000000	39
106.4830000000	41
106.5130000000	37
106.5430000000	44
106.5730000000	48
106.6030000000	44
106.6330000000	42
106.6630000000	41
106.6930000000	39
106.7230000000	26
106.7530000000	52
106.7830000000	36
106.8130000000	46
106.8430000000	43
106.8730000000	44
106.9030000000	41
106.9330000000	35
106.9630000000	34
106.9930000000	43
107.0230000000	37
107.0530000000	31
107.0830000000	32
107.1130000000	36
107.1430000000	41
107.1730000000	36
107.2030000000	37
107.2330000000	38
107.2630000000	39
107.2930000000	29
107.3230000000	34
107.3530000000	31
107.3830000000	36
107.4130000000	41
107.4430000000	42
107.4730000000	37
107.5030000000	42
107.5330000000	55
107.5630000000	40
107.5930000000	45
107.6230000000	45
107.6530000000	36
107.6830000000	43
107.7130000000	48
107.7430000000	45
107.7730000000	41
107.8030000000	47
107.8330000000	44
107.8630000000	43
107.8930000000	41
107.9230000000	33
107.9530000000	40
107.9830000000	46
108.0130000000	44
108.0430000000	28
108.0730000000	40
108.1030000000	32
108.1330000000	34
108.1630000000	43
108.1930000000	31
108.2230000000	32
108.2530000000	34
108.2830000000	38
108.3130000000	31
108.3430000000	42
108.3730000000	46
108.4030000000	37
108.4330000000	34
108.4630000000	33
108.4930000000	40
108.5230000000	30
108.5530000000	36
108.5830000000	39
108.6130000000	37
108.6430000000	33
108.6730000000	36
108.7030000000	39
108.7330000000	34
108.7630000000	38
108.7930000000	37
108.8230000000	32
108.8530000000	26
108.8830000000	39
108.9130000000	27
108.9430000000	33
108.9730000000	34
109.0030000000	43
109.0330000000	38
109.0630000000	40
109.0930000000	41
109.1230000000	31
109.1530000000	40
109.1830000000	32
109.2130000000	40
109.2430000000	33
109.2730000000	36
109.3030000000	41
109.3330000000	33
109.3630000000	42
109.3930000000	39
109.4230000000	50
109.4530000000	32
109.4830000000	51
109.5130000000	36
109.5430000000	42
109.5730000000	40
109.6030000000	33
109.6330000000	25
109.6630000000	31
109.6930000000	38
109.7230000000	36
109.7530000000	33
109.7830000000	43
109.8130000000	36
109.8430000000	32
109.8730000000	33
109.9030000000	40
109.9330000000	36
109.9630000000	43
109.9930000000	43
110.0230000000	40
110.0530000000	38
110.0830000000	32
110.1130000000	35
110.1430000000	43
110.1730000000	32
110.2030000000	42
110.2330000000	42
110.2630000000	43
110.2930000000	45
110.3230000000	47
110.3530000000	38
110.3830000000	35
110.4130000000	37
110.4430000000	41
110.4730000000	37
110.5030000000	38
110.5330000000	39
110.5630000000	41
110.5930000000	32
110.6230000000	38
110.6530000000	37
110.6830000000	44
110.7130000000	34
110.7430000000	40
110.7730000000	36
110.8030000000	44
110.8330000000	39
110.8630000000	36
110.8930000000	35
110.9230000000	45
110.9530000000	42
110.9830000000	54
111.0130000000	42
111.0430000000	32
111.0730000000	37
111.1030000000	33
111.1330000000	26
111.1630000000	31
111.1930000000	34
111.2230000000	29
111.2530000000	37
111.2830000000	28
111.3130000000	40
111.3430000000	39
111.3730000000	32
111.4030000000	44
111.4330000000	47
111.4630000000	41
111.4930000000	46
111.5230000000	38
111.5530000000	37
111.5830000000	39
111.6130000000	40
111.6430000000	51
111.6730000000	40
111.7030000000	37
111.7330000000	42
111.7630000000	47
111.7930000000	36
111.8230000000	28
111.8530000000	37
111.8830000000	59
111.9130000000	39
111.9430000000	39
111.9730000000	30
112.0030000000	43
112.0330000000	37
112.0630000000	34
112.0930000000	47
112.1230000000	27
112.1530000000	42
112.1830000000	52
112.2130000000	28
112.2430000000	44
112.2730000000	44
112.3030000000	46
112.3330000000	33
112.3630000000	45
112.3930000000	43
112.4230000000	37
112.4530000000	33
112.4830000000	41
112.5130000000	28
112.5430000000	28
112.5730000000	37
112.6030000000	47
112.6330000000	35
112.6630000000	37
112.6930000000	46
112.7230000000	42
112.7530000000	44
112.7830000000	49
112.8130000000	44
112.8430000000	55
112.8730000000	58
112.9030000000	66
112.9330000000	69
112.9630000000	50
112.9930000000	51
113.0230000000	40
113.0530000000	45
113.0830000000	51
113.1130000000	39
113.1430000000	34
113.1730000000	39
113.2030000000	41
113.2330000000	46
113.2630000000	62
113.2930000000	60
113.3230000000	58
113.3530000000	49
113.3830000000	45
113.4130000000	54
113.4430000000	58
113.4730000000	45
113.5030000000	42
113.5330000000	35
113.5630000000	38
113.5930000000	38
113.6230000000	37
113.6530000000	26
113.6830000000	22
113.7130000000	42
113.7430000000	40
113.7730000000	39
113.8030000000	33
113.8330000000	29
113.8630000000	34
113.8930000000	35
113.9230000000	32
113.9530000000	47
113.9830000000	43
114.0130000000	40
114.0430000000	41
114.0730000000	52
114.1030000000	38
114.1330000000	33
114.1630000000	41
114.1930000000	50
114.2230000000	44
114.2530000000	34
114.2830000000	32
114.3130000000	42
114.3430000000	42
114.3730000000	40
114.4030000000	51
114.4330000000	48
114.4630000000	1
114.4930000000	1
114.5230000000	1
114.5530000000	1
114.5830000000	1
