0.3130000000	1
0.3430000000	1
0.3730000000	1
0.4030000000	1
0.4330000000	1
0.4630000000	1
0.4930000000	1
0.5230000000	1
0.5530000000	1
0.5830000000	1
0.6130000000	1
0.6430000000	2
0.6730000000	1
0.7030000000	1
0.7330000000	1
0.7630000000	1
0.7930000000	1
0.8230000000	1
0.8530000000	1
0.8830000000	1
0.9130000000	1
0.9430000000	1
0.9730000000	2
1.0030000000	1
1.0330000000	1
1.0630000000	1
1.0930000000	1
1.1230000000	1
1.1530000000	1
1.1830000000	1
1.2130000000	1
1.2430000000	1
1.2730000000	1
1.3030000000	1
1.3330000000	1
1.3630000000	1
1.3930000000	1
1.4230000000	1
1.4530000000	2
1.4830000000	1
1.5130000000	1
1.5430000000	1
1.5730000000	1
1.6030000000	1
1.6330000000	1
1.6630000000	1
1.6930000000	1
1.7230000000	2
1.7530000000	1
1.7830000000	1
1.8130000000	1
1.8430000000	1
1.8730000000	1
1.9030000000	2
1.9330000000	1
1.9630000000	2
1.9930000000	1
2.0230000000	1
2.0530000000	1
2.0830000000	2
2.1130000000	1
2.1430000000	1
2.1730000000	1
2.2030000000	1
2.2330000000	1
2.2630000000	1
2.2930000000	1
2.3230000000	1
2.3530000000	1
2.3830000000	1
2.4130000000	1
2.4430000000	1
2.4730000000	1
2.5030000000	1
2.5330000000	2
2.5630000000	2
2.5930000000	1
2.6230000000	2
2.6530000000	3
2.6830000000	2
2.7130000000	1
2.7430000000	1
2.7730000000	1
2.8030000000	2
2.8330000000	3
2.8630000000	1
2.8930000000	2
2.9230000000	2
2.9530000000	1
2.9830000000	1
3.0130000000	1
3.0430000000	2
3.0730000000	3
3.1030000000	1
3.1330000000	1
3.1630000000	1
3.1930000000	1
3.2230000000	3
3.2530000000	2
3.2830000000	2
3.3130000000	1
3.3430000000	1
3.3730000000	1
3.4030000000	1
3.4330000000	2
3.4630000000	5
3.4930000000	2
3.5230000000	2
3.5530000000	1
3.5830000000	2
3.6130000000	2
3.6430000000	2
3.6730000000	2
3.7030000000	4
3.7330000000	1
3.7630000000	3
3.7930000000	4
3.8230000000	1
3.8530000000	3
3.8830000000	2
3.9130000000	3
3.9430000000	4
3.9730000000	4
4.0030000000	3
4.0330000000	2
4.0630000000	1
4.0930000000	2
4.1230000000	4
4.1530000000	2
4.1830000000	4
4.2130000000	4
4.2430000000	5
4.2730000000	1
4.3030000000	5
4.3330000000	8
4.3630000000	2
4.3930000000	6
4.4230000000	6
4.4530000000	8
4.4830000000	12
4.5130000000	29
4.5430000000	48
4.5730000000	53
4.6030000000	65
4.6330000000	109
4.6630000000	137
4.6930000000	108
4.7230000000	126
4.7530000000	129
4.7830000000	137
4.8130000000	111
4.8430000000	154
4.8730000000	153
4.9030000000	156
4.9330000000	124
4.9630000000	136
4.9930000000	129
5.0230000000	156
5.0530000000	134
5.0830000000	133
5.1130000000	140
5.1430000000	132
5.1730000000	146
5.2030000000	121
5.2330000000	120
5.2630000000	147
5.2930000000	141
5.3230000000	134
5.3530000000	157
5.3830000000	147
5.4130000000	131
5.4430000000	143
5.4730000000	153
5.5030000000	148
5.5330000000	144
5.5630000000	141
5.5930000000	134
5.6230000000	137
5.6530000000	145
5.6830000000	151
5.7130000000	124
5.7430000000	150
5.7730000000	147
5.8030000000	128
5.8330000000	158
5.8630000000	153
5.8930000000	149
5.9230000000	157
5.9530000000	160
5.9830000000	137
6.0130000000	142
6.0430000000	147
6.0730000000	159
6.1030000000	159
6.1330000000	143
6.1630000000	126
6.1930000000	158
6.2230000000	159
6.2530000000	154
6.2830000000	172
6.3130000000	155
6.3430000000	145
6.3730000000	147
6.4030000000	171
6.4330000000	138
6.4630000000	144
6.4930000000	170
6.5230000000	144
6.5530000000	109
6.5830000000	134
6.6130000000	150
6.6430000000	138
6.6730000000	157
6.7030000000	164
6.7330000000	152
6.7630000000	140
6.7930000000	136
6.8230000000	144
6.8530000000	162
6.8830000000	151
6.9130000000	151
6.9430000000	158
6.9730000000	151
7.0030000000	144
7.0330000000	144
7.0630000000	119
7.0930000000	140
7.1230000000	146
7.1530000000	149
7.1830000000	138
7.2130000000	142
7.2430000000	135
7.2730000000	127
7.3030000000	163
7.3330000000	163
7.3630000000	126
7.3930000000	144
7.4230000000	144
7.4530000000	125
7.4830000000	123
7.5130000000	135
7.5430000000	147
7.5730000000	147
7.6030000000	150
7.6330000000	149
7.6630000000	143
7.6930000000	142
7.7230000000	142
7.7530000000	135
7.7830000000	135
7.8130000000	146
7.8430000000	148
7.8730000000	136
7.9030000000	132
7.9330000000	148
7.9630000000	143
7.9930000000	124
8.0230000000	145
8.0530000000	159
8.0830000000	156
8.1130000000	181
8.1430000000	153
8.1730000000	134
8.2030000000	141
8.2330000000	144
8.2630000000	169
8.2930000000	136
8.3230000000	119
8.3530000000	140
8.3830000000	142
8.4130000000	148
8.4430000000	130
8.4730000000	153
8.5030000000	141
8.5330000000	155
8.5630000000	153
8.5930000000	148
8.6230000000	144
8.6530000000	154
8.6830000000	138
8.7130000000	147
8.7430000000	160
8.7730000000	152
8.8030000000	144
8.8330000000	137
8.8630000000	143
8.8930000000	151
8.9230000000	119
8.9530000000	149
8.9830000000	162
9.0130000000	133
9.0430000000	170
9.0730000000	131
9.1030000000	141
9.1330000000	146
9.1630000000	141
9.1930000000	161
9.2230000000	155
9.2530000000	151
9.2830000000	156
9.3130000000	179
9.3430000000	144
9.3730000000	133
9.4030000000	147
9.4330000000	145
9.4630000000	154
9.4930000000	141
9.5230000000	129
9.5530000000	165
9.5830000000	166
9.6130000000	149
9.6430000000	129
9.6730000000	150
9.7030000000	148
9.7330000000	144
9.7630000000	148
9.7930000000	155
9.8230000000	141
9.8530000000	140
9.8830000000	178
9.9130000000	144
9.9430000000	140
9.9730000000	140
10.0030000000	144
10.0330000000	138
10.0630000000	146
10.0930000000	149
10.1230000000	136
10.1530000000	175
10.1830000000	150
10.2130000000	154
10.2430000000	154
10.2730000000	146
10.3030000000	146
10.3330000000	154
10.3630000000	142
10.3930000000	142
10.4230000000	154
10.4530000000	154
10.4830000000	147
10.5130000000	122
10.5430000000	150
10.5730000000	139
10.6030000000	139
10.6330000000	150
10.6630000000	151
10.6930000000	149
10.7230000000	144
10.7530000000	141
10.7830000000	128
10.8130000000	151
10.8430000000	149
10.8730000000	126
10.9030000000	126
10.9330000000	141
10.9630000000	145
10.9930000000	150
11.0230000000	150
11.0530000000	152
11.0830000000	160
11.1130000000	150
11.1430000000	140
11.1730000000	152
11.2030000000	133
11.2330000000	128
11.2630000000	169
11.2930000000	182
11.3230000000	158
11.3530000000	164
11.3830000000	137
11.4130000000	128
11.4430000000	164
11.4730000000	168
11.5030000000	175
11.5330000000	171
11.5630000000	153
11.5930000000	134
11.6230000000	161
11.6530000000	140
11.6830000000	139
11.7130000000	142
11.7430000000	158
11.7730000000	141
11.8030000000	160
11.8330000000	150
11.8630000000	150
11.8930000000	134
11.9230000000	157
11.9530000000	147
11.9830000000	153
12.0130000000	154
12.0430000000	154
12.0730000000	147
12.1030000000	150
12.1330000000	121
12.1630000000	151
12.1930000000	157
12.2230000000	165
12.2530000000	142
12.2830000000	148
12.3130000000	141
12.3430000000	139
12.3730000000	144
12.4030000000	145
12.4330000000	136
12.4630000000	165
12.4930000000	161
12.5230000000	150
12.5530000000	155
12.5830000000	137
12.6130000000	134
12.6430000000	142
12.6730000000	139
12.7030000000	157
12.7330000000	160
12.7630000000	162
12.7930000000	157
12.8230000000	169
12.8530000000	163
12.8830000000	149
12.9130000000	152
12.9430000000	147
12.9730000000	141
13.0030000000	142
13.0330000000	154
13.0630000000	154
13.0930000000	140
13.1230000000	142
13.1530000000	148
13.1830000000	126
13.2130000000	150
13.2430000000	137
13.2730000000	154
13.3030000000	151
13.3330000000	145
13.3630000000	128
13.3930000000	144
13.4230000000	153
13.4530000000	132
13.4830000000	135
13.5130000000	141
13.5430000000	131
13.5730000000	133
13.6030000000	130
13.6330000000	151
13.6630000000	148
13.6930000000	161
13.7230000000	149
13.7530000000	159
13.7830000000	144
13.8130000000	133
13.8430000000	138
13.8730000000	138
13.9030000000	154
13.9330000000	118
13.9630000000	131
13.9930000000	125
14.0230000000	185
14.0530000000	139
14.0830000000	152
14.1130000000	142
14.1430000000	119
14.1730000000	147
14.2030000000	135
14.2330000000	134
14.2630000000	135
14.2930000000	131
14.3230000000	125
14.3530000000	165
14.3830000000	162
14.4130000000	155
14.4430000000	134
14.4730000000	116
14.5030000000	140
14.5330000000	162
14.5630000000	140
14.5930000000	140
14.6230000000	143
14.6530000000	163
14.6830000000	153
14.7130000000	165
14.7430000000	126
14.7730000000	131
14.8030000000	155
14.8330000000	142
14.8630000000	151
14.8930000000	143
14.9230000000	161
14.9530000000	174
14.9830000000	147
15.0130000000	145
15.0430000000	144
15.0730000000	146
15.1030000000	157
15.1330000000	155
15.1630000000	153
15.1930000000	146
15.2230000000	176
15.2530000000	130
15.2830000000	147
15.3130000000	142
15.3430000000	166
15.3730000000	166
15.4030000000	145
15.4330000000	134
15.4630000000	146
15.4930000000	131
15.5230000000	144
15.5530000000	138
15.5830000000	151
15.6130000000	134
15.6430000000	136
15.6730000000	139
15.7030000000	127
15.7330000000	132
15.7630000000	131
15.7930000000	129
15.8230000000	146
15.8530000000	131
15.8830000000	157
15.9130000000	135
15.9430000000	128
15.9730000000	133
16.0030000000	139
16.0330000000	134
16.0630000000	126
16.0930000000	171
16.1230000000	157
16.1530000000	143
16.1830000000	136
16.2130000000	147
16.2430000000	150
16.2730000000	160
16.3030000000	140
16.3330000000	145
16.3630000000	150
16.3930000000	148
16.4230000000	149
16.4530000000	140
16.4830000000	156
16.5130000000	165
16.5430000000	148
16.5730000000	163
16.6030000000	157
16.6330000000	156
16.6630000000	140
16.6930000000	149
16.7230000000	132
16.7530000000	149
16.7830000000	145
16.8130000000	154
16.8430000000	160
16.8730000000	156
16.9030000000	118
16.9330000000	147
16.9630000000	144
16.9930000000	151
17.0230000000	160
17.0530000000	147
17.0830000000	151
17.1130000000	147
17.1430000000	131
17.1730000000	138
17.2030000000	166
17.2330000000	158
17.2630000000	153
17.2930000000	155
17.3230000000	149
17.3530000000	140
17.3830000000	156
17.4130000000	155
17.4430000000	133
17.4730000000	141
17.5030000000	168
17.5330000000	140
17.5630000000	128
17.5930000000	148
17.6230000000	146
17.6530000000	141
17.6830000000	151
17.7130000000	142
17.7430000000	126
17.7730000000	144
17.8030000000	148
17.8330000000	144
17.8630000000	148
17.8930000000	143
17.9230000000	144
17.9530000000	143
17.9830000000	144
18.0130000000	154
18.0430000000	155
18.0730000000	144
18.1030000000	144
18.1330000000	129
18.1630000000	138
18.1930000000	125
18.2230000000	139
18.2530000000	159
18.2830000000	146
18.3130000000	142
18.3430000000	136
18.3730000000	137
18.4030000000	146
18.4330000000	135
18.4630000000	154
18.4930000000	143
18.5230000000	143
18.5530000000	144
18.5830000000	148
18.6130000000	153
18.6430000000	131
18.6730000000	143
18.7030000000	159
18.7330000000	130
18.7630000000	147
18.7930000000	139
18.8230000000	140
18.8530000000	147
18.8830000000	146
18.9130000000	155
18.9430000000	148
18.9730000000	132
19.0030000000	149
19.0330000000	143
19.0630000000	155
19.0930000000	158
19.1230000000	132
19.1530000000	142
19.1830000000	156
19.2130000000	148
19.2430000000	141
19.2730000000	146
19.3030000000	173
19.3330000000	148
19.3630000000	140
19.3930000000	144
19.4230000000	154
19.4530000000	149
19.4830000000	162
19.5130000000	154
19.5430000000	127
19.5730000000	147
19.6030000000	152
19.6330000000	145
19.6630000000	166
19.6930000000	158
19.7230000000	134
19.7530000000	170
19.7830000000	140
19.8130000000	160
19.8430000000	150
19.8730000000	144
19.9030000000	164
19.9330000000	141
19.9630000000	153
19.9930000000	144
20.0230000000	154
20.0530000000	121
20.0830000000	137
20.1130000000	159
20.1430000000	159
20.1730000000	173
20.2030000000	150
20.2330000000	157
20.2630000000	158
20.2930000000	150
20.3230000000	150
20.3530000000	163
20.3830000000	148
20.4130000000	151
20.4430000000	162
20.4730000000	145
20.5030000000	166
20.5330000000	154
20.5630000000	162
20.5930000000	171
20.6230000000	183
20.6530000000	199
20.6830000000	246
20.7130000000	305
20.7430000000	397
20.7730000000	546
20.8030000000	691
20.8330000000	853
20.8630000000	983
20.8930000000	910
20.9230000000	750
20.9530000000	574
20.9830000000	391
21.0130000000	301
21.0430000000	245
21.0730000000	231
21.1030000000	163
21.1330000000	167
21.1630000000	151
21.1930000000	156
21.2230000000	150
21.2530000000	155
21.2830000000	162
21.3130000000	161
21.3430000000	166
21.3730000000	159
21.4030000000	161
21.4330000000	174
21.4630000000	173
21.4930000000	157
21.5230000000	147
21.5530000000	139
21.5830000000	126
21.6130000000	153
21.6430000000	181
21.6730000000	148
21.7030000000	161
21.7330000000	175
21.7630000000	145
21.7930000000	153
21.8230000000	157
21.8530000000	149
21.8830000000	178
21.9130000000	162
21.9430000000	174
21.9730000000	148
22.0030000000	147
22.0330000000	158
22.0630000000	153
22.0930000000	175
22.1230000000	162
22.1530000000	165
22.1830000000	175
22.2130000000	154
22.2430000000	152
22.2730000000	148
22.3030000000	155
22.3330000000	157
22.3630000000	170
22.3930000000	165
22.4230000000	149
22.4530000000	183
22.4830000000	193
22.5130000000	171
22.5430000000	157
22.5730000000	167
22.6030000000	179
22.6330000000	183
22.6630000000	165
22.6930000000	147
22.7230000000	185
22.7530000000	159
22.7830000000	153
22.8130000000	152
22.8430000000	162
22.8730000000	168
22.9030000000	157
22.9330000000	159
22.9630000000	175
22.9930000000	170
23.0230000000	167
23.0530000000	151
23.0830000000	158
23.1130000000	164
23.1430000000	167
23.1730000000	153
23.2030000000	172
23.2330000000	173
23.2630000000	173
23.2930000000	180
23.3230000000	163
23.3530000000	162
23.3830000000	180
23.4130000000	147
23.4430000000	155
23.4730000000	176
23.5030000000	171
23.5330000000	182
23.5630000000	172
23.5930000000	163
23.6230000000	137
23.6530000000	191
23.6830000000	149
23.7130000000	153
23.7430000000	171
23.7730000000	151
23.8030000000	157
23.8330000000	159
23.8630000000	168
23.8930000000	167
23.9230000000	164
23.9530000000	149
23.9830000000	150
24.0130000000	175
24.0430000000	178
24.0730000000	170
24.1030000000	170
24.1330000000	151
24.1630000000	163
24.1930000000	159
24.2230000000	145
24.2530000000	162
24.2830000000	157
24.3130000000	142
24.3430000000	157
24.3730000000	152
24.4030000000	158
24.4330000000	157
24.4630000000	151
24.4930000000	142
24.5230000000	154
24.5530000000	173
24.5830000000	180
24.6130000000	166
24.6430000000	156
24.6730000000	156
24.7030000000	163
24.7330000000	151
24.7630000000	166
24.7930000000	177
24.8230000000	161
24.8530000000	161
24.8830000000	160
24.9130000000	143
24.9430000000	171
24.9730000000	182
25.0030000000	177
25.0330000000	137
25.0630000000	158
25.0930000000	163
25.1230000000	158
25.1530000000	161
25.1830000000	155
25.2130000000	151
25.2430000000	181
25.2730000000	160
25.3030000000	159
25.3330000000	147
25.3630000000	195
25.3930000000	167
25.4230000000	168
25.4530000000	157
25.4830000000	179
25.5130000000	188
25.5430000000	166
25.5730000000	160
25.6030000000	187
25.6330000000	193
25.6630000000	170
25.6930000000	151
25.7230000000	200
25.7530000000	198
25.7830000000	252
25.8130000000	258
25.8430000000	354
25.8730000000	482
25.9030000000	658
25.9330000000	971
25.9630000000	1279
25.9930000000	1492
26.0230000000	1479
26.0530000000	1219
26.0830000000	936
26.1130000000	620
26.1430000000	412
26.1730000000	322
26.2030000000	239
26.2330000000	232
26.2630000000	200
26.2930000000	172
26.3230000000	175
26.3530000000	166
26.3830000000	160
26.4130000000	163
26.4430000000	149
26.4730000000	153
26.5030000000	142
26.5330000000	156
26.5630000000	171
26.5930000000	149
26.6230000000	139
26.6530000000	153
26.6830000000	142
26.7130000000	149
26.7430000000	163
26.7730000000	150
26.8030000000	156
26.8330000000	144
26.8630000000	151
26.8930000000	157
26.9230000000	150
26.9530000000	138
26.9830000000	140
27.0130000000	148
27.0430000000	148
27.0730000000	150
27.1030000000	144
27.1330000000	144
27.1630000000	147
27.1930000000	143
27.2230000000	129
27.2530000000	143
27.2830000000	147
27.3130000000	154
27.3430000000	139
27.3730000000	139
27.4030000000	147
27.4330000000	157
27.4630000000	140
27.4930000000	159
27.5230000000	135
27.5530000000	135
27.5830000000	155
27.6130000000	142
27.6430000000	142
27.6730000000	134
27.7030000000	132
27.7330000000	137
27.7630000000	137
27.7930000000	138
27.8230000000	137
27.8530000000	147
27.8830000000	134
27.9130000000	158
27.9430000000	153
27.9730000000	151
28.0030000000	175
28.0330000000	159
28.0630000000	146
28.0930000000	179
28.1230000000	212
28.1530000000	239
28.1830000000	234
28.2130000000	237
28.2430000000	220
28.2730000000	190
28.3030000000	179
28.3330000000	134
28.3630000000	147
28.3930000000	144
28.4230000000	154
28.4530000000	154
28.4830000000	145
28.5130000000	160
28.5430000000	150
28.5730000000	139
28.6030000000	138
28.6330000000	120
28.6630000000	127
28.6930000000	152
28.7230000000	130
28.7530000000	143
28.7830000000	137
28.8130000000	141
28.8430000000	137
28.8730000000	156
28.9030000000	124
28.9330000000	145
28.9630000000	110
28.9930000000	125
29.0230000000	133
29.0530000000	141
29.0830000000	126
29.1130000000	126
29.1430000000	120
29.1730000000	118
29.2030000000	134
29.2330000000	122
29.2630000000	105
29.2930000000	149
29.3230000000	123
29.3530000000	134
29.3830000000	119
29.4130000000	131
29.4430000000	115
29.4730000000	114
29.5030000000	110
29.5330000000	114
29.5630000000	109
29.5930000000	127
29.6230000000	116
29.6530000000	123
29.6830000000	136
29.7130000000	134
29.7430000000	114
29.7730000000	134
29.8030000000	110
29.8330000000	111
29.8630000000	126
29.8930000000	116
29.9230000000	108
29.9530000000	136
29.9830000000	118
30.0130000000	112
30.0430000000	138
30.0730000000	99
30.1030000000	128
30.1330000000	124
30.1630000000	113
30.1930000000	99
30.2230000000	113
30.2530000000	122
30.2830000000	116
30.3130000000	123
30.3430000000	121
30.3730000000	131
30.4030000000	106
30.4330000000	116
30.4630000000	134
30.4930000000	115
30.5230000000	107
30.5530000000	108
30.5830000000	97
30.6130000000	124
30.6430000000	108
30.6730000000	117
30.7030000000	94
30.7330000000	109
30.7630000000	110
30.7930000000	136
30.8230000000	114
30.8530000000	122
30.8830000000	118
30.9130000000	126
30.9430000000	118
30.9730000000	125
31.0030000000	108
31.0330000000	119
31.0630000000	134
31.0930000000	106
31.1230000000	102
31.1530000000	112
31.1830000000	114
31.2130000000	112
31.2430000000	113
31.2730000000	119
31.3030000000	125
31.3330000000	117
31.3630000000	119
31.3930000000	116
31.4230000000	108
31.4530000000	100
31.4830000000	103
31.5130000000	110
31.5430000000	110
31.5730000000	109
31.6030000000	116
31.6330000000	113
31.6630000000	112
31.6930000000	97
31.7230000000	103
31.7530000000	116
31.7830000000	109
31.8130000000	103
31.8430000000	122
31.8730000000	115
31.9030000000	113
31.9330000000	103
31.9630000000	103
31.9930000000	106
32.0230000000	100
32.0530000000	109
32.0830000000	99
32.1130000000	91
32.1430000000	97
32.1730000000	121
32.2030000000	105
32.2330000000	99
32.2630000000	101
32.2930000000	116
32.3230000000	112
32.3530000000	104
32.3830000000	107
32.4130000000	111
32.4430000000	98
32.4730000000	111
32.5030000000	100
32.5330000000	102
32.5630000000	96
32.5930000000	114
32.6230000000	116
32.6530000000	109
32.6830000000	110
32.7130000000	111
32.7430000000	96
32.7730000000	100
32.8030000000	107
32.8330000000	104
32.8630000000	99
32.8930000000	101
32.9230000000	105
32.9530000000	111
32.9830000000	122
33.0130000000	119
33.0430000000	116
33.0730000000	112
33.1030000000	107
33.1330000000	112
33.1630000000	118
33.1930000000	139
33.2230000000	124
33.2530000000	142
33.2830000000	140
33.3130000000	155
33.3430000000	187
33.3730000000	277
33.4030000000	379
33.4330000000	606
33.4630000000	961
33.4930000000	1325
33.5230000000	1990
33.5530000000	2680
33.5830000000	3070
33.6130000000	2864
33.6430000000	2287
33.6730000000	1676
33.7030000000	1143
33.7330000000	715
33.7630000000	438
33.7930000000	307
33.8230000000	230
33.8530000000	189
33.8830000000	156
33.9130000000	144
33.9430000000	138
33.9730000000	122
34.0030000000	126
34.0330000000	117
34.0630000000	109
34.0930000000	119
34.1230000000	109
34.1530000000	106
34.1830000000	118
34.2130000000	94
34.2430000000	99
34.2730000000	88
34.3030000000	103
34.3330000000	111
34.3630000000	96
34.3930000000	100
34.4230000000	87
34.4530000000	90
34.4830000000	87
34.5130000000	101
34.5430000000	81
34.5730000000	87
34.6030000000	102
34.6330000000	87
34.6630000000	91
34.6930000000	98
34.7230000000	89
34.7530000000	91
34.7830000000	90
34.8130000000	104
34.8430000000	93
34.8730000000	95
34.9030000000	91
34.9330000000	103
34.9630000000	90
34.9930000000	81
35.0230000000	98
35.0530000000	91
35.0830000000	83
35.1130000000	86
35.1430000000	104
35.1730000000	78
35.2030000000	98
35.2330000000	107
35.2630000000	88
35.2930000000	90
35.3230000000	82
35.3530000000	77
35.3830000000	109
35.4130000000	89
35.4430000000	93
35.4730000000	103
35.5030000000	99
35.5330000000	109
35.5630000000	93
35.5930000000	93
35.6230000000	91
35.6530000000	98
35.6830000000	88
35.7130000000	103
35.7430000000	97
35.7730000000	76
35.8030000000	115
35.8330000000	87
35.8630000000	109
35.8930000000	90
35.9230000000	88
35.9530000000	98
35.9830000000	113
36.0130000000	113
36.0430000000	127
36.0730000000	145
36.1030000000	190
36.1330000000	243
36.1630000000	289
36.1930000000	299
36.2230000000	318
36.2530000000	285
36.2830000000	224
36.3130000000	199
36.3430000000	137
36.3730000000	118
36.4030000000	96
36.4330000000	98
36.4630000000	98
36.4930000000	83
36.5230000000	87
36.5530000000	96
36.5830000000	87
36.6130000000	94
36.6430000000	104
36.6730000000	92
36.7030000000	93
36.7330000000	87
36.7630000000	84
36.7930000000	99
36.8230000000	106
36.8530000000	91
36.8830000000	91
36.9130000000	100
36.9430000000	89
36.9730000000	84
37.0030000000	90
37.0330000000	92
37.0630000000	85
37.0930000000	101
37.1230000000	95
37.1530000000	98
37.1830000000	86
37.2130000000	96
37.2430000000	93
37.2730000000	97
37.3030000000	89
37.3330000000	96
37.3630000000	104
37.3930000000	99
37.4230000000	89
37.4530000000	105
37.4830000000	97
37.5130000000	106
37.5430000000	105
37.5730000000	102
37.6030000000	118
37.6330000000	131
37.6630000000	121
37.6930000000	137
37.7230000000	157
37.7530000000	188
37.7830000000	268
37.8130000000	390
37.8430000000	486
37.8730000000	786
37.9030000000	1219
37.9330000000	1711
37.9630000000	2244
37.9930000000	2706
38.0230000000	2632
38.0530000000	2320
38.0830000000	1731
38.1130000000	1237
38.1430000000	817
38.1730000000	555
38.2030000000	343
38.2330000000	227
38.2630000000	192
38.2930000000	152
38.3230000000	130
38.3530000000	129
38.3830000000	120
38.4130000000	110
38.4430000000	102
38.4730000000	123
38.5030000000	109
38.5330000000	86
38.5630000000	86
38.5930000000	92
38.6230000000	94
38.6530000000	87
38.6830000000	87
38.7130000000	91
38.7430000000	95
38.7730000000	108
38.8030000000	92
38.8330000000	78
38.8630000000	84
38.8930000000	86
38.9230000000	86
38.9530000000	82
38.9830000000	88
39.0130000000	90
39.0430000000	88
39.0730000000	91
39.1030000000	84
39.1330000000	88
39.1630000000	90
39.1930000000	84
39.2230000000	74
39.2530000000	98
39.2830000000	95
39.3130000000	93
39.3430000000	72
39.3730000000	89
39.4030000000	98
39.4330000000	77
39.4630000000	72
39.4930000000	79
39.5230000000	66
39.5530000000	75
39.5830000000	84
39.6130000000	85
39.6430000000	84
39.6730000000	71
39.7030000000	82
39.7330000000	86
39.7630000000	91
39.7930000000	86
39.8230000000	75
39.8530000000	81
39.8830000000	88
39.9130000000	78
39.9430000000	91
39.9730000000	98
40.0030000000	87
40.0330000000	84
40.0630000000	91
40.0930000000	97
40.1230000000	76
40.1530000000	73
40.1830000000	72
40.2130000000	82
40.2430000000	81
40.2730000000	75
40.3030000000	75
40.3330000000	79
40.3630000000	71
40.3930000000	82
40.4230000000	80
40.4530000000	80
40.4830000000	73
40.5130000000	71
40.5430000000	72
40.5730000000	84
40.6030000000	71
40.6330000000	68
40.6630000000	94
40.6930000000	72
40.7230000000	75
40.7530000000	78
40.7830000000	69
40.8130000000	96
40.8430000000	83
40.8730000000	88
40.9030000000	77
40.9330000000	86
40.9630000000	72
40.9930000000	102
41.0230000000	90
41.0530000000	84
41.0830000000	84
41.1130000000	81
41.1430000000	103
41.1730000000	101
41.2030000000	74
41.2330000000	85
41.2630000000	82
41.2930000000	77
41.3230000000	77
41.3530000000	65
41.3830000000	71
41.4130000000	72
41.4430000000	88
41.4730000000	69
41.5030000000	83
41.5330000000	72
41.5630000000	68
41.5930000000	73
41.6230000000	72
41.6530000000	83
41.6830000000	75
41.7130000000	79
41.7430000000	82
41.7730000000	71
41.8030000000	75
41.8330000000	83
41.8630000000	79
41.8930000000	80
41.9230000000	74
41.9530000000	80
41.9830000000	102
42.0130000000	109
42.0430000000	107
42.0730000000	172
42.1030000000	227
42.1330000000	279
42.1630000000	311
42.1930000000	321
42.2230000000	263
42.2530000000	213
42.2830000000	167
42.3130000000	131
42.3430000000	117
42.3730000000	113
42.4030000000	111
42.4330000000	109
42.4630000000	91
42.4930000000	85
42.5230000000	101
42.5530000000	89
42.5830000000	87
42.6130000000	83
42.6430000000	67
42.6730000000	75
42.7030000000	79
42.7330000000	81
42.7630000000	96
42.7930000000	96
42.8230000000	74
42.8530000000	79
42.8830000000	72
42.9130000000	83
42.9430000000	77
42.9730000000	69
43.0030000000	65
43.0330000000	75
43.0630000000	60
43.0930000000	75
43.1230000000	92
43.1530000000	67
43.1830000000	67
43.2130000000	67
43.2430000000	83
43.2730000000	62
43.3030000000	65
43.3330000000	80
43.3630000000	68
43.3930000000	75
43.4230000000	76
43.4530000000	66
43.4830000000	63
43.5130000000	87
43.5430000000	97
43.5730000000	80
43.6030000000	127
43.6330000000	136
43.6630000000	147
43.6930000000	187
43.7230000000	237
43.7530000000	252
43.7830000000	226
43.8130000000	215
43.8430000000	178
43.8730000000	174
43.9030000000	110
43.9330000000	85
43.9630000000	93
43.9930000000	90
44.0230000000	82
44.0530000000	52
44.0830000000	76
44.1130000000	66
44.1430000000	60
44.1730000000	66
44.2030000000	79
44.2330000000	65
44.2630000000	71
44.2930000000	76
44.3230000000	72
44.3530000000	73
44.3830000000	78
44.4130000000	63
44.4430000000	85
44.4730000000	58
44.5030000000	67
44.5330000000	61
44.5630000000	74
44.5930000000	66
44.6230000000	63
44.6530000000	76
44.6830000000	67
44.7130000000	62
44.7430000000	68
44.7730000000	66
44.8030000000	77
44.8330000000	65
44.8630000000	61
44.8930000000	65
44.9230000000	63
44.9530000000	91
44.9830000000	72
45.0130000000	73
45.0430000000	75
45.0730000000	69
45.1030000000	66
45.1330000000	64
45.1630000000	76
45.1930000000	69
45.2230000000	63
45.2530000000	70
45.2830000000	75
45.3130000000	62
45.3430000000	63
45.3730000000	70
45.4030000000	75
45.4330000000	63
45.4630000000	75
45.4930000000	81
45.5230000000	60
45.5530000000	67
45.5830000000	68
45.6130000000	62
45.6430000000	64
45.6730000000	63
45.7030000000	63
45.7330000000	71
45.7630000000	74
45.7930000000	64
45.8230000000	72
45.8530000000	74
45.8830000000	66
45.9130000000	70
45.9430000000	63
45.9730000000	76
46.0030000000	69
46.0330000000	75
46.0630000000	63
46.0930000000	79
46.1230000000	80
46.1530000000	69
46.1830000000	69
46.2130000000	90
46.2430000000	88
46.2730000000	96
46.3030000000	103
46.3330000000	148
46.3630000000	188
46.3930000000	283
46.4230000000	375
46.4530000000	527
46.4830000000	734
46.5130000000	861
46.5430000000	843
46.5730000000	774
46.6030000000	662
46.6330000000	646
46.6630000000	524
46.6930000000	483
46.7230000000	589
46.7530000000	705
46.7830000000	749
46.8130000000	709
46.8430000000	643
46.8730000000	496
46.9030000000	405
46.9330000000	302
46.9630000000	201
46.9930000000	173
47.0230000000	125
47.0530000000	103
47.0830000000	83
47.1130000000	100
47.1430000000	69
47.1730000000	77
47.2030000000	80
47.2330000000	61
47.2630000000	76
47.2930000000	56
47.3230000000	70
47.3530000000	63
47.3830000000	68
47.4130000000	68
47.4430000000	82
47.4730000000	71
47.5030000000	49
47.5330000000	60
47.5630000000	78
47.5930000000	56
47.6230000000	61
47.6530000000	70
47.6830000000	59
47.7130000000	61
47.7430000000	69
47.7730000000	69
47.8030000000	51
47.8330000000	66
47.8630000000	67
47.8930000000	65
47.9230000000	64
47.9530000000	63
47.9830000000	59
48.0130000000	56
48.0430000000	64
48.0730000000	53
48.1030000000	58
48.1330000000	67
48.1630000000	60
48.1930000000	70
48.2230000000	50
48.2530000000	49
48.2830000000	62
48.3130000000	59
48.3430000000	61
48.3730000000	66
48.4030000000	57
48.4330000000	63
48.4630000000	46
48.4930000000	75
48.5230000000	65
48.5530000000	61
48.5830000000	62
48.6130000000	54
48.6430000000	65
48.6730000000	60
48.7030000000	60
48.7330000000	62
48.7630000000	57
48.7930000000	68
48.8230000000	67
48.8530000000	54
48.8830000000	57
48.9130000000	50
48.9430000000	46
48.9730000000	57
49.0030000000	53
49.0330000000	47
49.0630000000	54
49.0930000000	42
49.1230000000	44
49.1530000000	51
49.1830000000	55
49.2130000000	58
49.2430000000	71
49.2730000000	58
49.3030000000	56
49.3330000000	58
49.3630000000	62
49.3930000000	57
49.4230000000	53
49.4530000000	57
49.4830000000	59
49.5130000000	56
49.5430000000	54
49.5730000000	36
49.6030000000	42
49.6330000000	54
49.6630000000	49
49.6930000000	46
49.7230000000	51
49.7530000000	53
49.7830000000	61
49.8130000000	55
49.8430000000	54
49.8730000000	52
49.9030000000	62
49.9330000000	52
49.9630000000	52
49.9930000000	54
50.0230000000	52
50.0530000000	56
50.0830000000	49
50.1130000000	44
50.1430000000	55
50.1730000000	53
50.2030000000	56
50.2330000000	48
50.2630000000	58
50.2930000000	58
50.3230000000	62
50.3530000000	67
50.3830000000	84
50.4130000000	77
50.4430000000	85
50.4730000000	95
50.5030000000	116
50.5330000000	109
50.5630000000	87
50.5930000000	85
50.6230000000	78
50.6530000000	73
50.6830000000	74
50.7130000000	69
50.7430000000	53
50.7730000000	47
50.8030000000	61
50.8330000000	58
50.8630000000	55
50.8930000000	52
50.9230000000	55
50.9530000000	52
50.9830000000	57
51.0130000000	55
51.0430000000	48
51.0730000000	57
51.1030000000	53
51.1330000000	49
51.1630000000	58
51.1930000000	56
51.2230000000	53
51.2530000000	52
51.2830000000	49
51.3130000000	43
51.3430000000	45
51.3730000000	53
51.4030000000	49
51.4330000000	40
51.4630000000	50
51.4930000000	56
51.5230000000	50
51.5530000000	44
51.5830000000	55
51.6130000000	53
51.6430000000	41
51.6730000000	43
51.7030000000	48
51.7330000000	46
51.7630000000	38
51.7930000000	48
51.8230000000	67
51.8530000000	40
51.8830000000	45
51.9130000000	54
51.9430000000	40
51.9730000000	47
52.0030000000	48
52.0330000000	56
52.0630000000	53
52.0930000000	48
52.1230000000	38
52.1530000000	61
52.1830000000	37
52.2130000000	45
52.2430000000	55
52.2730000000	40
52.3030000000	37
52.3330000000	59
52.3630000000	53
52.3930000000	43
52.4230000000	62
52.4530000000	36
52.4830000000	43
52.5130000000	50
52.5430000000	52
52.5730000000	52
52.6030000000	41
52.6330000000	46
52.6630000000	57
52.6930000000	45
52.7230000000	48
52.7530000000	52
52.7830000000	54
52.8130000000	43
52.8430000000	60
52.8730000000	42
52.9030000000	40
52.9330000000	43
52.9630000000	54
52.9930000000	43
53.0230000000	50
53.0530000000	42
53.0830000000	46
53.1130000000	47
53.1430000000	50
53.1730000000	48
53.2030000000	59
53.2330000000	43
53.2630000000	44
53.2930000000	53
53.3230000000	48
53.3530000000	69
53.3830000000	66
53.4130000000	92
53.4430000000	106
53.4730000000	132
53.5030000000	129
53.5330000000	140
53.5630000000	113
53.5930000000	104
53.6230000000	88
53.6530000000	74
53.6830000000	75
53.7130000000	60
53.7430000000	61
53.7730000000	50
53.8030000000	43
53.8330000000	48
53.8630000000	48
53.8930000000	48
53.9230000000	53
53.9530000000	56
53.9830000000	49
54.0130000000	46
54.0430000000	39
54.0730000000	53
54.1030000000	49
54.1330000000	45
54.1630000000	58
54.1930000000	47
54.2230000000	48
54.2530000000	37
54.2830000000	35
54.3130000000	48
54.3430000000	39
54.3730000000	42
54.4030000000	45
54.4330000000	53
54.4630000000	48
54.4930000000	49
54.5230000000	52
54.5530000000	39
54.5830000000	55
54.6130000000	43
54.6430000000	38
54.6730000000	46
54.7030000000	55
54.7330000000	43
54.7630000000	58
54.7930000000	39
54.8230000000	54
54.8530000000	53
54.8830000000	51
54.9130000000	45
54.9430000000	42
54.9730000000	42
55.0030000000	38
55.0330000000	44
55.0630000000	28
55.0930000000	41
55.1230000000	46
55.1530000000	54
55.1830000000	52
55.2130000000	53
55.2430000000	39
55.2730000000	46
55.3030000000	39
55.3330000000	55
55.3630000000	49
55.3930000000	47
55.4230000000	51
55.4530000000	41
55.4830000000	57
55.5130000000	43
55.5430000000	39
55.5730000000	41
55.6030000000	42
55.6330000000	38
55.6630000000	60
55.6930000000	46
55.7230000000	52
55.7530000000	40
55.7830000000	45
55.8130000000	50
55.8430000000	53
55.8730000000	45
55.9030000000	48
55.9330000000	42
55.9630000000	53
55.9930000000	52
56.0230000000	47
56.0530000000	40
56.0830000000	50
56.1130000000	56
56.1430000000	42
56.1730000000	46
56.2030000000	65
56.2330000000	35
56.2630000000	42
56.2930000000	47
56.3230000000	47
56.3530000000	54
56.3830000000	49
56.4130000000	49
56.4430000000	49
56.4730000000	45
56.5030000000	39
56.5330000000	40
56.5630000000	43
56.5930000000	49
56.6230000000	50
56.6530000000	47
56.6830000000	29
56.7130000000	41
56.7430000000	51
56.7730000000	47
56.8030000000	43
56.8330000000	48
56.8630000000	42
56.8930000000	50
56.9230000000	35
56.9530000000	47
56.9830000000	49
57.0130000000	41
57.0430000000	49
57.0730000000	40
57.1030000000	40
57.1330000000	42
57.1630000000	47
57.1930000000	54
57.2230000000	43
57.2530000000	42
57.2830000000	43
57.3130000000	43
57.3430000000	41
57.3730000000	47
57.4030000000	39
57.4330000000	35
57.4630000000	44
57.4930000000	40
57.5230000000	52
57.5530000000	51
57.5830000000	45
57.6130000000	35
57.6430000000	49
57.6730000000	39
57.7030000000	39
57.7330000000	46
57.7630000000	43
57.7930000000	49
57.8230000000	25
57.8530000000	52
57.8830000000	54
57.9130000000	40
57.9430000000	47
57.9730000000	58
58.0030000000	96
58.0330000000	97
58.0630000000	94
58.0930000000	79
58.1230000000	88
58.1530000000	78
58.1830000000	75
58.2130000000	66
58.2430000000	72
58.2730000000	50
58.3030000000	50
58.3330000000	52
58.3630000000	43
58.3930000000	40
58.4230000000	49
58.4530000000	39
58.4830000000	46
58.5130000000	58
58.5430000000	46
58.5730000000	56
58.6030000000	37
58.6330000000	34
58.6630000000	47
58.6930000000	39
58.7230000000	45
58.7530000000	51
58.7830000000	39
58.8130000000	44
58.8430000000	50
58.8730000000	50
58.9030000000	47
58.9330000000	36
58.9630000000	55
58.9930000000	45
59.0230000000	57
59.0530000000	57
59.0830000000	64
59.1130000000	79
59.1430000000	88
59.1730000000	79
59.2030000000	59
59.2330000000	61
59.2630000000	67
59.2930000000	65
59.3230000000	60
59.3530000000	47
59.3830000000	55
59.4130000000	51
59.4430000000	41
59.4730000000	34
59.5030000000	54
59.5330000000	45
59.5630000000	43
59.5930000000	36
59.6230000000	39
59.6530000000	53
59.6830000000	57
59.7130000000	51
59.7430000000	43
59.7730000000	41
59.8030000000	54
59.8330000000	44
59.8630000000	54
59.8930000000	63
59.9230000000	84
59.9530000000	122
59.9830000000	90
60.0130000000	112
60.0430000000	105
60.0730000000	97
60.1030000000	94
60.1330000000	101
60.1630000000	76
60.1930000000	66
60.2230000000	60
60.2530000000	45
60.2830000000	44
60.3130000000	55
60.3430000000	33
60.3730000000	40
60.4030000000	44
60.4330000000	45
60.4630000000	50
60.4930000000	53
60.5230000000	49
60.5530000000	50
60.5830000000	46
60.6130000000	46
60.6430000000	41
60.6730000000	46
60.7030000000	50
60.7330000000	43
60.7630000000	43
60.7930000000	49
60.8230000000	41
60.8530000000	34
60.8830000000	46
60.9130000000	28
60.9430000000	42
60.9730000000	46
61.0030000000	47
61.0330000000	45
61.0630000000	37
61.0930000000	29
61.1230000000	26
61.1530000000	35
61.1830000000	38
61.2130000000	35
61.2430000000	43
61.2730000000	37
61.3030000000	36
61.3330000000	48
61.3630000000	37
61.3930000000	43
61.4230000000	54
61.4530000000	42
61.4830000000	47
61.5130000000	47
61.5430000000	63
61.5730000000	74
61.6030000000	65
61.6330000000	72
61.6630000000	68
61.6930000000	56
61.7230000000	65
61.7530000000	71
61.7830000000	55
61.8130000000	45
61.8430000000	63
61.8730000000	50
61.9030000000	49
61.9330000000	43
61.9630000000	47
61.9930000000	35
62.0230000000	35
62.0530000000	53
62.0830000000	40
62.1130000000	38
62.1430000000	38
62.1730000000	41
62.2030000000	45
62.2330000000	38
62.2630000000	39
62.2930000000	41
62.3230000000	41
62.3530000000	38
62.3830000000	35
62.4130000000	48
62.4430000000	32
62.4730000000	39
62.5030000000	52
62.5330000000	40
62.5630000000	39
62.5930000000	42
62.6230000000	52
62.6530000000	56
62.6830000000	41
62.7130000000	42
62.7430000000	43
62.7730000000	38
62.8030000000	40
62.8330000000	49
62.8630000000	45
62.8930000000	41
62.9230000000	48
62.9530000000	40
62.9830000000	38
63.0130000000	42
63.0430000000	45
63.0730000000	44
63.1030000000	32
63.1330000000	36
63.1630000000	40
63.1930000000	48
63.2230000000	47
63.2530000000	43
63.2830000000	37
63.3130000000	32
63.3430000000	35
63.3730000000	41
63.4030000000	44
63.4330000000	31
63.4630000000	45
63.4930000000	55
63.5230000000	40
63.5530000000	43
63.5830000000	54
63.6130000000	47
63.6430000000	50
63.6730000000	35
63.7030000000	33
63.7330000000	38
63.7630000000	38
63.7930000000	40
63.8230000000	39
63.8530000000	43
63.8830000000	31
63.9130000000	39
63.9430000000	29
63.9730000000	39
64.0030000000	29
64.0330000000	36
64.0630000000	39
64.0930000000	47
64.1230000000	43
64.1530000000	54
64.1830000000	31
64.2130000000	41
64.2430000000	47
64.2730000000	36
64.3030000000	30
64.3330000000	42
64.3630000000	41
64.3930000000	39
64.4230000000	54
64.4530000000	39
64.4830000000	37
64.5130000000	34
64.5430000000	30
64.5730000000	39
64.6030000000	32
64.6330000000	42
64.6630000000	35
64.6930000000	37
64.7230000000	41
64.7530000000	29
64.7830000000	44
64.8130000000	34
64.8430000000	44
64.8730000000	36
64.9030000000	41
64.9330000000	55
64.9630000000	36
64.9930000000	35
65.0230000000	48
65.0530000000	36
65.0830000000	32
65.1130000000	38
65.1430000000	42
65.1730000000	34
65.2030000000	31
65.2330000000	34
65.2630000000	35
65.2930000000	41
65.3230000000	30
65.3530000000	28
65.3830000000	49
65.4130000000	44
65.4430000000	32
65.4730000000	38
65.5030000000	42
65.5330000000	38
65.5630000000	39
65.5930000000	43
65.6230000000	52
65.6530000000	56
65.6830000000	71
65.7130000000	76
65.7430000000	99
65.7730000000	115
65.8030000000	128
65.8330000000	141
65.8630000000	103
65.8930000000	121
65.9230000000	103
65.9530000000	88
65.9830000000	86
66.0130000000	91
66.0430000000	78
66.0730000000	48
66.1030000000	58
66.1330000000	43
66.1630000000	59
66.1930000000	41
66.2230000000	39
66.2530000000	33
66.2830000000	48
66.3130000000	43
66.3430000000	51
66.3730000000	44
66.4030000000	44
66.4330000000	45
66.4630000000	41
66.4930000000	41
66.5230000000	38
66.5530000000	39
66.5830000000	39
66.6130000000	35
66.6430000000	33
66.6730000000	37
66.7030000000	44
66.7330000000	34
66.7630000000	45
66.7930000000	42
66.8230000000	37
66.8530000000	44
66.8830000000	39
66.9130000000	36
66.9430000000	36
66.9730000000	35
67.0030000000	31
67.0330000000	35
67.0630000000	47
67.0930000000	41
67.1230000000	36
67.1530000000	36
67.1830000000	34
67.2130000000	38
67.2430000000	51
67.2730000000	50
67.3030000000	38
67.3330000000	39
67.3630000000	41
67.3930000000	44
67.4230000000	40
67.4530000000	31
67.4830000000	36
67.5130000000	33
67.5430000000	48
67.5730000000	28
67.6030000000	31
67.6330000000	42
67.6630000000	39
67.6930000000	40
67.7230000000	49
67.7530000000	48
67.7830000000	41
67.8130000000	42
67.8430000000	46
67.8730000000	39
67.9030000000	35
67.9330000000	57
67.9630000000	53
67.9930000000	40
68.0230000000	34
68.0530000000	31
68.0830000000	39
68.1130000000	37
68.1430000000	47
68.1730000000	39
68.2030000000	37
68.2330000000	49
68.2630000000	38
68.2930000000	40
68.3230000000	35
68.3530000000	46
68.3830000000	30
68.4130000000	41
68.4430000000	45
68.4730000000	35
68.5030000000	44
68.5330000000	50
68.5630000000	39
68.5930000000	44
68.6230000000	42
68.6530000000	40
68.6830000000	47
68.7130000000	53
68.7430000000	63
68.7730000000	61
68.8030000000	72
68.8330000000	97
68.8630000000	84
68.8930000000	92
68.9230000000	76
68.9530000000	73
68.9830000000	84
69.0130000000	65
69.0430000000	83
69.0730000000	79
69.1030000000	79
69.1330000000	79
69.1630000000	65
69.1930000000	70
69.2230000000	64
69.2530000000	69
69.2830000000	62
69.3130000000	50
69.3430000000	43
69.3730000000	46
69.4030000000	40
69.4330000000	45
69.4630000000	31
69.4930000000	34
69.5230000000	43
69.5530000000	34
69.5830000000	38
69.6130000000	35
69.6430000000	42
69.6730000000	39
69.7030000000	37
69.7330000000	33
69.7630000000	35
69.7930000000	51
69.8230000000	28
69.8530000000	50
69.8830000000	39
69.9130000000	35
69.9430000000	40
69.9730000000	44
70.0030000000	51
70.0330000000	48
70.0630000000	53
70.0930000000	34
70.1230000000	40
70.1530000000	34
70.1830000000	32
70.2130000000	41
70.2430000000	38
70.2730000000	43
70.3030000000	37
70.3330000000	27
70.3630000000	45
70.3930000000	49
70.4230000000	38
70.4530000000	41
70.4830000000	42
70.5130000000	47
70.5430000000	31
70.5730000000	39
70.6030000000	45
70.6330000000	41
70.6630000000	42
70.6930000000	33
70.7230000000	33
70.7530000000	37
70.7830000000	31
70.8130000000	40
70.8430000000	31
70.8730000000	31
70.9030000000	33
70.9330000000	36
70.9630000000	32
70.9930000000	37
71.0230000000	36
71.0530000000	48
71.0830000000	46
71.1130000000	40
71.1430000000	34
71.1730000000	34
71.2030000000	40
71.2330000000	42
71.2630000000	32
71.2930000000	29
71.3230000000	43
71.3530000000	35
71.3830000000	34
71.4130000000	49
71.4430000000	45
71.4730000000	42
71.5030000000	40
71.5330000000	37
71.5630000000	48
71.5930000000	51
71.6230000000	37
71.6530000000	37
71.6830000000	40
71.7130000000	34
71.7430000000	37
71.7730000000	47
71.8030000000	42
71.8330000000	43
71.8630000000	41
71.8930000000	42
71.9230000000	37
71.9530000000	46
71.9830000000	50
72.0130000000	47
72.0430000000	48
72.0730000000	41
72.1030000000	46
72.1330000000	49
72.1630000000	34
72.1930000000	47
72.2230000000	49
72.2530000000	81
72.2830000000	52
72.3130000000	74
72.3430000000	75
72.3730000000	75
72.4030000000	77
72.4330000000	53
72.4630000000	71
72.4930000000	68
72.5230000000	56
72.5530000000	54
72.5830000000	55
72.6130000000	51
72.6430000000	32
72.6730000000	53
72.7030000000	47
72.7330000000	43
72.7630000000	43
72.7930000000	43
72.8230000000	51
72.8530000000	39
72.8830000000	35
72.9130000000	55
72.9430000000	42
72.9730000000	44
73.0030000000	31
73.0330000000	47
73.0630000000	41
73.0930000000	48
73.1230000000	61
73.1530000000	55
73.1830000000	67
73.2130000000	68
73.2430000000	74
73.2730000000	76
73.3030000000	68
73.3330000000	66
73.3630000000	63
73.3930000000	73
73.4230000000	66
73.4530000000	58
73.4830000000	52
73.5130000000	53
73.5430000000	52
73.5730000000	49
73.6030000000	43
73.6330000000	47
73.6630000000	46
73.6930000000	43
73.7230000000	42
73.7530000000	31
73.7830000000	44
73.8130000000	40
73.8430000000	28
73.8730000000	43
73.9030000000	54
73.9330000000	43
73.9630000000	41
73.9930000000	42
74.0230000000	45
74.0530000000	38
74.0830000000	32
74.1130000000	42
74.1430000000	42
74.1730000000	41
74.2030000000	32
74.2330000000	43
74.2630000000	34
74.2930000000	43
74.3230000000	49
74.3530000000	51
74.3830000000	46
74.4130000000	49
74.4430000000	48
74.4730000000	49
74.5030000000	37
74.5330000000	48
74.5630000000	50
74.5930000000	76
74.6230000000	77
74.6530000000	71
74.6830000000	79
74.7130000000	73
74.7430000000	67
74.7730000000	86
74.8030000000	95
74.8330000000	111
74.8630000000	103
74.8930000000	92
74.9230000000	78
74.9530000000	72
74.9830000000	60
75.0130000000	51
75.0430000000	61
75.0730000000	60
75.1030000000	59
75.1330000000	42
75.1630000000	58
75.1930000000	38
75.2230000000	51
75.2530000000	38
75.2830000000	36
75.3130000000	37
75.3430000000	38
75.3730000000	35
75.4030000000	45
75.4330000000	51
75.4630000000	31
75.4930000000	38
75.5230000000	48
75.5530000000	46
75.5830000000	43
75.6130000000	51
75.6430000000	35
75.6730000000	46
75.7030000000	43
75.7330000000	35
75.7630000000	43
75.7930000000	43
75.8230000000	40
75.8530000000	46
75.8830000000	41
75.9130000000	29
75.9430000000	38
75.9730000000	38
76.0030000000	40
76.0330000000	34
76.0630000000	42
76.0930000000	50
76.1230000000	39
76.1530000000	35
76.1830000000	44
76.2130000000	41
76.2430000000	34
76.2730000000	33
76.3030000000	37
76.3330000000	44
76.3630000000	47
76.3930000000	45
76.4230000000	38
76.4530000000	40
76.4830000000	33
76.5130000000	30
76.5430000000	38
76.5730000000	29
76.6030000000	42
76.6330000000	48
76.6630000000	48
76.6930000000	39
76.7230000000	41
76.7530000000	40
76.7830000000	38
76.8130000000	46
76.8430000000	42
76.8730000000	54
76.9030000000	68
76.9330000000	56
76.9630000000	59
76.9930000000	57
77.0230000000	47
77.0530000000	55
77.0830000000	40
77.1130000000	46
77.1430000000	48
77.1730000000	56
77.2030000000	43
77.2330000000	41
77.2630000000	41
77.2930000000	44
77.3230000000	46
77.3530000000	48
77.3830000000	43
77.4130000000	47
77.4430000000	53
77.4730000000	58
77.5030000000	41
77.5330000000	52
77.5630000000	65
77.5930000000	56
77.6230000000	45
77.6530000000	45
77.6830000000	45
77.7130000000	52
77.7430000000	39
77.7730000000	44
77.8030000000	44
77.8330000000	39
77.8630000000	51
77.8930000000	46
77.9230000000	46
77.9530000000	36
77.9830000000	38
78.0130000000	46
78.0430000000	44
78.0730000000	36
78.1030000000	33
78.1330000000	35
78.1630000000	50
78.1930000000	42
78.2230000000	34
78.2530000000	40
78.2830000000	41
78.3130000000	48
78.3430000000	39
78.3730000000	34
78.4030000000	33
78.4330000000	43
78.4630000000	39
78.4930000000	34
78.5230000000	48
78.5530000000	27
78.5830000000	44
78.6130000000	35
78.6430000000	36
78.6730000000	45
78.7030000000	37
78.7330000000	34
78.7630000000	30
78.7930000000	43
78.8230000000	41
78.8530000000	41
78.8830000000	34
78.9130000000	33
78.9430000000	36
78.9730000000	44
79.0030000000	42
79.0330000000	46
79.0630000000	37
79.0930000000	33
79.1230000000	28
79.1530000000	40
79.1830000000	40
79.2130000000	35
79.2430000000	35
79.2730000000	37
79.3030000000	37
79.3330000000	45
79.3630000000	37
79.3930000000	34
79.4230000000	40
79.4530000000	37
79.4830000000	35
79.5130000000	33
79.5430000000	47
79.5730000000	33
79.6030000000	34
79.6330000000	36
79.6630000000	30
79.6930000000	42
79.7230000000	30
79.7530000000	29
79.7830000000	29
79.8130000000	31
79.8430000000	44
79.8730000000	39
79.9030000000	44
79.9330000000	46
79.9630000000	37
79.9930000000	32
80.0230000000	38
80.0530000000	35
80.0830000000	36
80.1130000000	42
80.1430000000	35
80.1730000000	39
80.2030000000	40
80.2330000000	50
80.2630000000	49
80.2930000000	42
80.3230000000	34
80.3530000000	35
80.3830000000	32
80.4130000000	48
80.4430000000	44
80.4730000000	39
80.5030000000	42
80.5330000000	49
80.5630000000	45
80.5930000000	53
80.6230000000	41
80.6530000000	46
80.6830000000	43
80.7130000000	39
80.7430000000	62
80.7730000000	50
80.8030000000	36
80.8330000000	56
80.8630000000	32
80.8930000000	40
80.9230000000	39
80.9530000000	28
80.9830000000	36
81.0130000000	33
81.0430000000	42
81.0730000000	44
81.1030000000	47
81.1330000000	60
81.1630000000	70
81.1930000000	68
81.2230000000	80
81.2530000000	62
81.2830000000	78
81.3130000000	64
81.3430000000	74
81.3730000000	90
81.4030000000	74
81.4330000000	66
81.4630000000	68
81.4930000000	55
81.5230000000	61
81.5530000000	63
81.5830000000	56
81.6130000000	66
81.6430000000	50
81.6730000000	49
81.7030000000	48
81.7330000000	43
81.7630000000	49
81.7930000000	45
81.8230000000	30
81.8530000000	39
81.8830000000	36
81.9130000000	40
81.9430000000	28
81.9730000000	37
82.0030000000	39
82.0330000000	34
82.0630000000	40
82.0930000000	33
82.1230000000	33
82.1530000000	29
82.1830000000	29
82.2130000000	37
82.2430000000	34
82.2730000000	29
82.3030000000	38
82.3330000000	33
82.3630000000	35
82.3930000000	40
82.4230000000	38
82.4530000000	40
82.4830000000	43
82.5130000000	37
82.5430000000	38
82.5730000000	39
82.6030000000	35
82.6330000000	35
82.6630000000	34
82.6930000000	30
82.7230000000	40
82.7530000000	46
82.7830000000	54
82.8130000000	40
82.8430000000	28
82.8730000000	33
82.9030000000	38
82.9330000000	33
82.9630000000	37
82.9930000000	42
83.0230000000	43
83.0530000000	41
83.0830000000	42
83.1130000000	42
83.1430000000	30
83.1730000000	32
83.2030000000	38
83.2330000000	40
83.2630000000	29
83.2930000000	40
83.3230000000	32
83.3530000000	36
83.3830000000	40
83.4130000000	27
83.4430000000	31
83.4730000000	38
83.5030000000	43
83.5330000000	34
83.5630000000	45
83.5930000000	43
83.6230000000	44
83.6530000000	37
83.6830000000	51
83.7130000000	53
83.7430000000	51
83.7730000000	58
83.8030000000	48
83.8330000000	57
83.8630000000	48
83.8930000000	42
83.9230000000	58
83.9530000000	46
83.9830000000	35
84.0130000000	39
84.0430000000	33
84.0730000000	47
84.1030000000	50
84.1330000000	37
84.1630000000	25
84.1930000000	42
84.2230000000	38
84.2530000000	38
84.2830000000	41
84.3130000000	49
84.3430000000	40
84.3730000000	32
84.4030000000	35
84.4330000000	37
84.4630000000	39
84.4930000000	46
84.5230000000	39
84.5530000000	40
84.5830000000	35
84.6130000000	45
84.6430000000	61
84.6730000000	46
84.7030000000	54
84.7330000000	80
84.7630000000	68
84.7930000000	66
84.8230000000	73
84.8530000000	59
84.8830000000	64
84.9130000000	56
84.9430000000	75
84.9730000000	72
85.0030000000	68
85.0330000000	59
85.0630000000	53
85.0930000000	50
85.1230000000	38
85.1530000000	44
85.1830000000	35
85.2130000000	32
85.2430000000	29
85.2730000000	45
85.3030000000	36
85.3330000000	40
85.3630000000	39
85.3930000000	43
85.4230000000	36
85.4530000000	39
85.4830000000	41
85.5130000000	33
85.5430000000	34
85.5730000000	40
85.6030000000	31
85.6330000000	31
85.6630000000	40
85.6930000000	29
85.7230000000	31
85.7530000000	35
85.7830000000	38
85.8130000000	34
85.8430000000	32
85.8730000000	33
85.9030000000	33
85.9330000000	34
85.9630000000	44
85.9930000000	41
86.0230000000	35
86.0530000000	37
86.0830000000	36
86.1130000000	37
86.1430000000	39
86.1730000000	44
86.2030000000	35
86.2330000000	40
86.2630000000	32
86.2930000000	30
86.3230000000	32
86.3530000000	36
86.3830000000	37
86.4130000000	42
86.4430000000	37
86.4730000000	33
86.5030000000	41
86.5330000000	41
86.5630000000	38
86.5930000000	39
86.6230000000	44
86.6530000000	39
86.6830000000	33
86.7130000000	40
86.7430000000	32
86.7730000000	40
86.8030000000	35
86.8330000000	38
86.8630000000	37
86.8930000000	39
86.9230000000	38
86.9530000000	35
86.9830000000	34
87.0130000000	28
87.0430000000	36
87.0730000000	40
87.1030000000	38
87.1330000000	41
87.1630000000	32
87.1930000000	38
87.2230000000	44
87.2530000000	29
87.2830000000	27
87.3130000000	37
87.3430000000	31
87.3730000000	37
87.4030000000	27
87.4330000000	36
87.4630000000	39
87.4930000000	35
87.5230000000	36
87.5530000000	33
87.5830000000	40
87.6130000000	37
87.6430000000	40
87.6730000000	29
87.7030000000	45
87.7330000000	40
87.7630000000	29
87.7930000000	39
87.8230000000	35
87.8530000000	42
87.8830000000	32
87.9130000000	33
87.9430000000	38
87.9730000000	36
88.0030000000	43
88.0330000000	47
88.0630000000	29
88.0930000000	28
88.1230000000	39
88.1530000000	33
88.1830000000	27
88.2130000000	27
88.2430000000	34
88.2730000000	37
88.3030000000	37
88.3330000000	36
88.3630000000	30
88.3930000000	28
88.4230000000	29
88.4530000000	39
88.4830000000	26
88.5130000000	35
88.5430000000	44
88.5730000000	36
88.6030000000	41
88.6330000000	38
88.6630000000	40
88.6930000000	33
88.7230000000	42
88.7530000000	31
88.7830000000	31
88.8130000000	46
88.8430000000	33
88.8730000000	45
88.9030000000	36
88.9330000000	38
88.9630000000	40
88.9930000000	39
89.0230000000	37
89.0530000000	49
89.0830000000	55
89.1130000000	49
89.1430000000	55
89.1730000000	48
89.2030000000	39
89.2330000000	36
89.2630000000	47
89.2930000000	47
89.3230000000	45
89.3530000000	49
89.3830000000	30
89.4130000000	35
89.4430000000	48
89.4730000000	42
89.5030000000	39
89.5330000000	39
89.5630000000	43
89.5930000000	39
89.6230000000	32
89.6530000000	30
89.6830000000	38
89.7130000000	43
89.7430000000	41
89.7730000000	39
89.8030000000	48
89.8330000000	50
89.8630000000	36
89.8930000000	42
89.9230000000	48
89.9530000000	31
89.9830000000	49
90.0130000000	49
90.0430000000	33
90.0730000000	38
90.1030000000	37
90.1330000000	41
90.1630000000	45
90.1930000000	33
90.2230000000	32
90.2530000000	37
90.2830000000	37
90.3130000000	26
90.3430000000	37
90.3730000000	34
90.4030000000	36
90.4330000000	32
90.4630000000	24
90.4930000000	32
90.5230000000	28
90.5530000000	31
90.5830000000	25
90.6130000000	37
90.6430000000	28
90.6730000000	32
90.7030000000	39
90.7330000000	43
90.7630000000	39
90.7930000000	33
90.8230000000	26
90.8530000000	38
90.8830000000	32
90.9130000000	35
90.9430000000	41
90.9730000000	32
91.0030000000	33
91.0330000000	42
91.0630000000	45
91.0930000000	24
91.1230000000	43
91.1530000000	37
91.1830000000	36
91.2130000000	37
91.2430000000	34
91.2730000000	31
91.3030000000	46
91.3330000000	42
91.3630000000	32
91.3930000000	34
91.4230000000	36
91.4530000000	35
91.4830000000	35
91.5130000000	28
91.5430000000	38
91.5730000000	36
91.6030000000	28
91.6330000000	36
91.6630000000	45
91.6930000000	46
91.7230000000	35
91.7530000000	32
91.7830000000	28
91.8130000000	36
91.8430000000	30
91.8730000000	42
91.9030000000	39
91.9330000000	29
91.9630000000	42
91.9930000000	49
92.0230000000	43
92.0530000000	34
92.0830000000	31
92.1130000000	41
92.1430000000	51
92.1730000000	31
92.2030000000	34
92.2330000000	51
92.2630000000	47
92.2930000000	31
92.3230000000	33
92.3530000000	37
92.3830000000	43
92.4130000000	36
92.4430000000	35
92.4730000000	43
92.5030000000	49
92.5330000000	41
92.5630000000	48
92.5930000000	32
92.6230000000	41
92.6530000000	42
92.6830000000	43
92.7130000000	34
92.7430000000	35
92.7730000000	39
92.8030000000	32
92.8330000000	34
92.8630000000	43
92.8930000000	36
92.9230000000	31
92.9530000000	42
92.9830000000	40
93.0130000000	35
93.0430000000	39
93.0730000000	37
93.1030000000	34
93.1330000000	37
93.1630000000	32
93.1930000000	40
93.2230000000	46
93.2530000000	33
93.2830000000	28
93.3130000000	33
93.3430000000	36
93.3730000000	41
93.4030000000	34
93.4330000000	37
93.4630000000	32
93.4930000000	36
93.5230000000	39
93.5530000000	37
93.5830000000	41
93.6130000000	44
93.6430000000	32
93.6730000000	27
93.7030000000	42
93.7330000000	43
93.7630000000	46
93.7930000000	40
93.8230000000	31
93.8530000000	37
93.8830000000	36
93.9130000000	41
93.9430000000	26
93.9730000000	37
94.0030000000	38
94.0330000000	39
94.0630000000	40
94.0930000000	39
94.1230000000	49
94.1530000000	49
94.1830000000	46
94.2130000000	39
94.2430000000	48
94.2730000000	50
94.3030000000	46
94.3330000000	40
94.3630000000	47
94.3930000000	64
94.4230000000	73
94.4530000000	62
94.4830000000	65
94.5130000000	80
94.5430000000	68
94.5730000000	54
94.6030000000	42
94.6330000000	42
94.6630000000	54
94.6930000000	50
94.7230000000	43
94.7530000000	57
94.7830000000	54
94.8130000000	56
94.8430000000	37
94.8730000000	47
94.9030000000	52
94.9330000000	33
94.9630000000	43
94.9930000000	39
95.0230000000	40
95.0530000000	38
95.0830000000	33
95.1130000000	39
95.1430000000	38
95.1730000000	39
95.2030000000	30
95.2330000000	45
95.2630000000	42
95.2930000000	26
95.3230000000	39
95.3530000000	34
95.3830000000	40
95.4130000000	41
95.4430000000	40
95.4730000000	45
95.5030000000	41
95.5330000000	36
95.5630000000	42
95.5930000000	45
95.6230000000	38
95.6530000000	40
95.6830000000	44
95.7130000000	38
95.7430000000	34
95.7730000000	30
95.8030000000	45
95.8330000000	34
95.8630000000	36
95.8930000000	39
95.9230000000	41
95.9530000000	33
95.9830000000	35
96.0130000000	42
96.0430000000	38
96.0730000000	32
96.1030000000	34
96.1330000000	38
96.1630000000	35
96.1930000000	37
96.2230000000	33
96.2530000000	34
96.2830000000	43
96.3130000000	32
96.3430000000	40
96.3730000000	37
96.4030000000	38
96.4330000000	37
96.4630000000	35
96.4930000000	40
96.5230000000	35
96.5530000000	41
96.5830000000	30
96.6130000000	31
96.6430000000	37
96.6730000000	46
96.7030000000	37
96.7330000000	42
96.7630000000	40
96.7930000000	37
96.8230000000	27
96.8530000000	51
96.8830000000	28
96.9130000000	48
96.9430000000	38
96.9730000000	42
97.0030000000	26
97.0330000000	34
97.0630000000	31
97.0930000000	34
97.1230000000	33
97.1530000000	37
97.1830000000	40
97.2130000000	33
97.2430000000	34
97.2730000000	28
97.3030000000	31
97.3330000000	39
97.3630000000	37
97.3930000000	38
97.4230000000	40
97.4530000000	36
97.4830000000	31
97.5130000000	28
97.5430000000	39
97.5730000000	46
97.6030000000	31
97.6330000000	44
97.6630000000	26
97.6930000000	36
97.7230000000	38
97.7530000000	37
97.7830000000	39
97.8130000000	40
97.8430000000	30
97.8730000000	30
97.9030000000	31
97.9330000000	39
97.9630000000	33
97.9930000000	47
98.0230000000	31
98.0530000000	44
98.0830000000	34
98.1130000000	41
98.1430000000	40
98.1730000000	44
98.2030000000	41
98.2330000000	38
98.2630000000	42
98.2930000000	43
98.3230000000	43
98.3530000000	41
98.3830000000	34
98.4130000000	36
98.4430000000	30
98.4730000000	37
98.5030000000	42
98.5330000000	48
98.5630000000	40
98.5930000000	48
98.6230000000	39
98.6530000000	34
98.6830000000	41
98.7130000000	40
98.7430000000	36
98.7730000000	31
98.8030000000	36
98.8330000000	42
98.8630000000	36
98.8930000000	48
98.9230000000	51
98.9530000000	28
98.9830000000	44
99.0130000000	47
99.0430000000	48
99.0730000000	33
99.1030000000	52
99.1330000000	38
99.1630000000	36
99.1930000000	41
99.2230000000	41
99.2530000000	42
99.2830000000	32
99.3130000000	40
99.3430000000	48
99.3730000000	53
99.4030000000	44
99.4330000000	35
99.4630000000	45
99.4930000000	31
99.5230000000	28
99.5530000000	24
99.5830000000	48
99.6130000000	35
99.6430000000	27
99.6730000000	37
99.7030000000	39
99.7330000000	37
99.7630000000	35
99.7930000000	38
99.8230000000	22
99.8530000000	35
99.8830000000	33
99.9130000000	33
99.9430000000	34
99.9730000000	35
100.0030000000	36
100.0330000000	32
100.0630000000	34
100.0930000000	35
100.1230000000	32
100.1530000000	32
100.1830000000	36
100.2130000000	41
100.2430000000	36
100.2730000000	37
100.3030000000	35
100.3330000000	30
100.3630000000	38
100.3930000000	41
100.4230000000	41
100.4530000000	31
100.4830000000	46
100.5130000000	33
100.5430000000	40
100.5730000000	34
100.6030000000	30
100.6330000000	26
100.6630000000	43
100.6930000000	31
100.7230000000	34
100.7530000000	36
100.7830000000	31
100.8130000000	25
100.8430000000	33
100.8730000000	32
100.9030000000	35
100.9330000000	45
100.9630000000	31
100.9930000000	33
101.0230000000	34
101.0530000000	37
101.0830000000	49
101.1130000000	37
101.1430000000	33
101.1730000000	24
101.2030000000	38
101.2330000000	39
101.2630000000	33
101.2930000000	33
101.3230000000	37
101.3530000000	30
101.3830000000	33
101.4130000000	39
101.4430000000	38
101.4730000000	36
101.5030000000	32
101.5330000000	32
101.5630000000	35
101.5930000000	37
101.6230000000	34
101.6530000000	34
101.6830000000	38
101.7130000000	28
101.7430000000	26
101.7730000000	43
101.8030000000	35
101.8330000000	31
101.8630000000	39
101.8930000000	35
101.9230000000	30
101.9530000000	27
101.9830000000	33
102.0130000000	38
102.0430000000	40
102.0730000000	31
102.1030000000	34
102.1330000000	30
102.1630000000	37
102.1930000000	34
102.2230000000	34
102.2530000000	34
102.2830000000	28
102.3130000000	31
102.3430000000	33
102.3730000000	36
102.4030000000	33
102.4330000000	37
102.4630000000	39
102.4930000000	47
102.5230000000	40
102.5530000000	40
102.5830000000	22
102.6130000000	32
102.6430000000	33
102.6730000000	41
102.7030000000	36
102.7330000000	39
102.7630000000	25
102.7930000000	28
102.8230000000	38
102.8530000000	34
102.8830000000	28
102.9130000000	28
102.9430000000	34
102.9730000000	38
103.0030000000	36
103.0330000000	38
103.0630000000	36
103.0930000000	43
103.1230000000	43
103.1530000000	32
103.1830000000	29
103.2130000000	39
103.2430000000	40
103.2730000000	33
103.3030000000	33
103.3330000000	33
103.3630000000	32
103.3930000000	35
103.4230000000	34
103.4530000000	44
103.4830000000	34
103.5130000000	39
103.5430000000	40
103.5730000000	38
103.6030000000	29
103.6330000000	44
103.6630000000	41
103.6930000000	35
103.7230000000	36
103.7530000000	32
103.7830000000	26
103.8130000000	40
103.8430000000	52
103.8730000000	39
103.9030000000	42
103.9330000000	35
103.9630000000	43
103.9930000000	49
104.0230000000	39
104.0530000000	36
104.0830000000	45
104.1130000000	51
104.1430000000	43
104.1730000000	53
104.2030000000	48
104.2330000000	49
104.2630000000	41
104.2930000000	41
104.3230000000	41
104.3530000000	36
104.3830000000	55
104.4130000000	54
104.4430000000	41
104.4730000000	49
104.5030000000	48
104.5330000000	37
104.5630000000	45
104.5930000000	49
104.6230000000	41
104.6530000000	36
104.6830000000	42
104.7130000000	45
104.7430000000	38
104.7730000000	30
104.8030000000	40
104.8330000000	47
104.8630000000	44
104.8930000000	34
104.9230000000	33
104.9530000000	34
104.9830000000	43
105.0130000000	33
105.0430000000	38
105.0730000000	49
105.1030000000	43
105.1330000000	40
105.1630000000	49
105.1930000000	57
105.2230000000	51
105.2530000000	48
105.2830000000	28
105.3130000000	39
105.3430000000	21
105.3730000000	31
105.4030000000	40
105.4330000000	44
105.4630000000	47
105.4930000000	37
105.5230000000	50
105.5530000000	48
105.5830000000	41
105.6130000000	41
105.6430000000	39
105.6730000000	32
105.7030000000	48
105.7330000000	38
105.7630000000	31
105.7930000000	37
105.8230000000	44
105.8530000000	44
105.8830000000	39
105.9130000000	35
105.9430000000	35
105.9730000000	24
106.0030000000	28
106.0330000000	31
106.0630000000	32
106.0930000000	32
106.1230000000	35
106.1530000000	35
106.1830000000	30
106.2130000000	34
106.2430000000	26
106.2730000000	39
106.3030000000	42
106.3330000000	34
106.3630000000	38
106.3930000000	34
106.4230000000	27
106.4530000000	33
106.4830000000	34
106.5130000000	35
106.5430000000	31
106.5730000000	44
106.6030000000	41
106.6330000000	35
106.6630000000	51
106.6930000000	52
106.7230000000	37
106.7530000000	26
106.7830000000	33
106.8130000000	33
106.8430000000	40
106.8730000000	41
106.9030000000	46
106.9330000000	49
106.9630000000	39
106.9930000000	30
107.0230000000	33
107.0530000000	31
107.0830000000	36
107.1130000000	44
107.1430000000	39
107.1730000000	37
107.2030000000	26
107.2330000000	31
107.2630000000	35
107.2930000000	45
107.3230000000	42
107.3530000000	42
107.3830000000	36
107.4130000000	28
107.4430000000	33
107.4730000000	36
107.5030000000	35
107.5330000000	33
107.5630000000	38
107.5930000000	37
107.6230000000	26
107.6530000000	29
107.6830000000	37
107.7130000000	31
107.7430000000	35
107.7730000000	42
107.8030000000	37
107.8330000000	30
107.8630000000	33
107.8930000000	39
107.9230000000	37
107.9530000000	35
107.9830000000	36
108.0130000000	41
108.0430000000	41
108.0730000000	38
108.1030000000	40
108.1330000000	48
108.1630000000	35
108.1930000000	43
108.2230000000	38
108.2530000000	44
108.2830000000	38
108.3130000000	33
108.3430000000	31
108.3730000000	41
108.4030000000	44
108.4330000000	42
108.4630000000	52
108.4930000000	45
108.5230000000	45
108.5530000000	34
108.5830000000	27
108.6130000000	39
108.6430000000	31
108.6730000000	35
108.7030000000	42
108.7330000000	40
108.7630000000	50
108.7930000000	43
108.8230000000	46
108.8530000000	41
108.8830000000	50
108.9130000000	32
108.9430000000	36
108.9730000000	40
109.0030000000	40
109.0330000000	58
109.0630000000	41
109.0930000000	56
109.1230000000	59
109.1530000000	50
109.1830000000	45
109.2130000000	34
109.2430000000	44
109.2730000000	46
109.3030000000	37
109.3330000000	46
109.3630000000	35
109.3930000000	41
109.4230000000	32
109.4530000000	51
109.4830000000	34
109.5130000000	52
109.5430000000	38
109.5730000000	47
109.6030000000	42
109.6330000000	39
109.6630000000	37
109.6930000000	33
109.7230000000	35
109.7530000000	37
109.7830000000	35
109.8130000000	43
109.8430000000	47
109.8730000000	50
109.9030000000	27
109.9330000000	41
109.9630000000	31
109.9930000000	32
110.0230000000	27
110.0530000000	30
110.0830000000	24
110.1130000000	35
110.1430000000	25
110.1730000000	29
110.2030000000	41
110.2330000000	33
110.2630000000	32
110.2930000000	39
110.3230000000	37
110.3530000000	38
110.3830000000	46
110.4130000000	37
110.4430000000	43
110.4730000000	28
110.5030000000	42
110.5330000000	40
110.5630000000	39
110.5930000000	40
110.6230000000	42
110.6530000000	43
110.6830000000	34
110.7130000000	36
110.7430000000	41
110.7730000000	35
110.8030000000	32
110.8330000000	49
110.8630000000	41
110.8930000000	38
110.9230000000	41
110.9530000000	36
110.9830000000	36
111.0130000000	39
111.0430000000	48
111.0730000000	40
111.1030000000	29
111.1330000000	44
111.1630000000	40
111.1930000000	27
111.2230000000	32
111.2530000000	34
111.2830000000	48
111.3130000000	31
111.3430000000	39
111.3730000000	45
111.4030000000	37
111.4330000000	38
111.4630000000	36
111.4930000000	40
111.5230000000	35
111.5530000000	40
111.5830000000	26
111.6130000000	41
111.6430000000	48
111.6730000000	41
111.7030000000	43
111.7330000000	37
111.7630000000	29
111.7930000000	45
111.8230000000	35
111.8530000000	35
111.8830000000	46
111.9130000000	46
111.9430000000	25
111.9730000000	38
112.0030000000	32
112.0330000000	35
112.0630000000	32
112.0930000000	37
112.1230000000	33
112.1530000000	41
112.1830000000	38
112.2130000000	35
112.2430000000	37
112.2730000000	40
112.3030000000	38
112.3330000000	45
112.3630000000	34
112.3930000000	30
112.4230000000	41
112.4530000000	35
112.4830000000	45
112.5130000000	42
112.5430000000	35
112.5730000000	40
112.6030000000	41
112.6330000000	36
112.6630000000	42
112.6930000000	42
112.7230000000	42
112.7530000000	44
112.7830000000	44
112.8130000000	43
112.8430000000	33
112.8730000000	35
112.9030000000	36
112.9330000000	37
112.9630000000	22
112.9930000000	36
113.0230000000	52
113.0530000000	38
113.0830000000	47
113.1130000000	39
113.1430000000	42
113.1730000000	44
113.2030000000	36
113.2330000000	37
113.2630000000	38
113.2930000000	42
113.3230000000	47
113.3530000000	40
113.3830000000	30
113.4130000000	31
113.4430000000	39
113.4730000000	40
113.5030000000	34
113.5330000000	43
113.5630000000	32
113.5930000000	34
113.6230000000	38
113.6530000000	34
113.6830000000	30
113.7130000000	45
113.7430000000	39
113.7730000000	39
113.8030000000	39
113.8330000000	40
113.8630000000	39
113.8930000000	34
113.9230000000	33
113.9530000000	43
113.9830000000	41
114.0130000000	28
114.0430000000	34
114.0730000000	54
114.1030000000	41
114.1330000000	31
114.1630000000	35
114.1930000000	38
114.2230000000	42
114.2530000000	27
114.2830000000	31
114.3130000000	58
114.3430000000	29
114.3730000000	42
114.4030000000	33
114.4330000000	43
114.4630000000	1
114.4930000000	1
114.5230000000	1
114.5530000000	1
114.5830000000	1
