0.3130000000	1
0.3430000000	2
0.3730000000	1
0.4030000000	1
0.4330000000	2
0.4630000000	1
0.4930000000	1
0.5230000000	1
0.5530000000	2
0.5830000000	1
0.6130000000	1
0.6430000000	1
0.6730000000	1
0.7030000000	1
0.7330000000	1
0.7630000000	1
0.7930000000	1
0.8230000000	1
0.8530000000	2
0.8830000000	1
0.9130000000	1
0.9430000000	1
0.9730000000	2
1.0030000000	1
1.0330000000	1
1.0630000000	1
1.0930000000	1
1.1230000000	2
1.1530000000	1
1.1830000000	1
1.2130000000	1
1.2430000000	1
1.2730000000	1
1.3030000000	1
1.3330000000	1
1.3630000000	1
1.3930000000	1
1.4230000000	1
1.4530000000	1
1.4830000000	2
1.5130000000	1
1.5430000000	1
1.5730000000	1
1.6030000000	1
1.6330000000	1
1.6630000000	1
1.6930000000	1
1.7230000000	1
1.7530000000	2
1.7830000000	1
1.8130000000	1
1.8430000000	1
1.8730000000	2
1.9030000000	1
1.9330000000	1
1.9630000000	1
1.9930000000	1
2.0230000000	1
2.0530000000	2
2.0830000000	1
2.1130000000	2
2.1430000000	1
2.1730000000	1
2.2030000000	3
2.2330000000	2
2.2630000000	2
2.2930000000	1
2.3230000000	2
2.3530000000	2
2.3830000000	1
2.4130000000	1
2.4430000000	1
2.4730000000	1
2.5030000000	2
2.5330000000	2
2.5630000000	2
2.5930000000	2
2.6230000000	1
2.6530000000	1
2.6830000000	1
2.7130000000	2
2.7430000000	2
2.7730000000	2
2.8030000000	2
2.8330000000	3
2.8630000000	2
2.8930000000	1
2.9230000000	1
2.9530000000	1
2.9830000000	1
3.0130000000	1
3.0430000000	1
3.0730000000	1
3.1030000000	1
3.1330000000	1
3.1630000000	1
3.1930000000	2
3.2230000000	3
3.2530000000	2
3.2830000000	1
3.3130000000	2
3.3430000000	1
3.3730000000	3
3.4030000000	2
3.4330000000	2
3.4630000000	2
3.4930000000	3
3.5230000000	2
3.5530000000	1
3.5830000000	2
3.6130000000	2
3.6430000000	1
3.6730000000	2
3.7030000000	2
3.7330000000	2
3.7630000000	3
3.7930000000	1
3.8230000000	2
3.8530000000	4
3.8830000000	2
3.9130000000	1
3.9430000000	4
3.9730000000	2
4.0030000000	3
4.0330000000	2
4.0630000000	2
4.0930000000	1
4.1230000000	3
4.1530000000	5
4.1830000000	3
4.2130000000	4
4.2430000000	3
4.2730000000	4
4.3030000000	4
4.3330000000	6
4.3630000000	5
4.3930000000	4
4.4230000000	4
4.4530000000	8
4.4830000000	8
4.5130000000	22
4.5430000000	38
4.5730000000	51
4.6030000000	78
4.6330000000	87
4.6630000000	97
4.6930000000	119
4.7230000000	135
4.7530000000	156
4.7830000000	119
4.8130000000	143
4.8430000000	152
4.8730000000	142
4.9030000000	146
4.9330000000	141
4.9630000000	153
4.9930000000	161
5.0230000000	137
5.0530000000	133
5.0830000000	152
5.1130000000	128
5.1430000000	116
5.1730000000	134
5.2030000000	132
5.2330000000	145
5.2630000000	180
5.2930000000	135
5.3230000000	151
5.3530000000	141
5.3830000000	141
5.4130000000	136
5.4430000000	162
5.4730000000	158
5.5030000000	164
5.5330000000	146
5.5630000000	151
5.5930000000	148
5.6230000000	161
5.6530000000	140
5.6830000000	143
5.7130000000	152
5.7430000000	147
5.7730000000	146
5.8030000000	144
5.8330000000	123
5.8630000000	146
5.8930000000	129
5.9230000000	152
5.9530000000	136
5.9830000000	147
6.0130000000	149
6.0430000000	148
6.0730000000	137
6.1030000000	139
6.1330000000	149
6.1630000000	146
6.1930000000	141
6.2230000000	152
6.2530000000	144
6.2830000000	145
6.3130000000	129
6.3430000000	134
6.3730000000	131
6.4030000000	151
6.4330000000	141
6.4630000000	118
6.4930000000	176
6.5230000000	142
6.5530000000	142
6.5830000000	152
6.6130000000	152
6.6430000000	127
6.6730000000	142
6.7030000000	148
6.7330000000	129
6.7630000000	130
6.7930000000	140
6.8230000000	140
6.8530000000	139
6.8830000000	150
6.9130000000	153
6.9430000000	136
6.9730000000	137
7.0030000000	136
7.0330000000	156
7.0630000000	154
7.0930000000	139
7.1230000000	132
7.1530000000	137
7.1830000000	140
7.2130000000	145
7.2430000000	155
7.2730000000	146
7.3030000000	150
7.3330000000	151
7.3630000000	152
7.3930000000	136
7.4230000000	142
7.4530000000	146
7.4830000000	128
7.5130000000	136
7.5430000000	146
7.5730000000	152
7.6030000000	166
7.6330000000	158
7.6630000000	153
7.6930000000	149
7.7230000000	144
7.7530000000	139
7.7830000000	151
7.8130000000	160
7.8430000000	131
7.8730000000	124
7.9030000000	151
7.9330000000	147
7.9630000000	138
7.9930000000	147
8.0230000000	134
8.0530000000	145
8.0830000000	144
8.1130000000	149
8.1430000000	151
8.1730000000	151
8.2030000000	135
8.2330000000	137
8.2630000000	123
8.2930000000	140
8.3230000000	138
8.3530000000	126
8.3830000000	155
8.4130000000	139
8.4430000000	153
8.4730000000	144
8.5030000000	132
8.5330000000	158
8.5630000000	136
8.5930000000	121
8.6230000000	132
8.6530000000	138
8.6830000000	133
8.7130000000	145
8.7430000000	125
8.7730000000	147
8.8030000000	131
8.8330000000	145
8.8630000000	112
8.8930000000	146
8.9230000000	135
8.9530000000	153
8.9830000000	132
9.0130000000	141
9.0430000000	161
9.0730000000	139
9.1030000000	147
9.1330000000	129
9.1630000000	107
9.1930000000	165
9.2230000000	143
9.2530000000	145
9.2830000000	164
9.3130000000	149
9.3430000000	154
9.3730000000	134
9.4030000000	148
9.4330000000	123
9.4630000000	146
9.4930000000	136
9.5230000000	165
9.5530000000	144
9.5830000000	145
9.6130000000	145
9.6430000000	137
9.6730000000	155
9.7030000000	164
9.7330000000	154
9.7630000000	181
9.7930000000	161
9.8230000000	145
9.8530000000	145
9.8830000000	135
9.9130000000	136
9.9430000000	152
9.9730000000	145
10.0030000000	135
10.0330000000	146
10.0630000000	136
10.0930000000	141
10.1230000000	169
10.1530000000	164
10.1830000000	156
10.2130000000	155
10.2430000000	169
10.2730000000	129
10.3030000000	156
10.3330000000	153
10.3630000000	153
10.3930000000	155
10.4230000000	147
10.4530000000	145
10.4830000000	145
10.5130000000	130
10.5430000000	162
10.5730000000	144
10.6030000000	127
10.6330000000	142
10.6630000000	151
10.6930000000	137
10.7230000000	150
10.7530000000	131
10.7830000000	150
10.8130000000	132
10.8430000000	137
10.8730000000	152
10.9030000000	131
10.9330000000	143
10.9630000000	149
10.9930000000	157
11.0230000000	128
11.0530000000	141
11.0830000000	150
11.1130000000	120
11.1430000000	153
11.1730000000	139
11.2030000000	130
11.2330000000	160
11.2630000000	146
11.2930000000	146
11.3230000000	133
11.3530000000	139
11.3830000000	158
11.4130000000	149
11.4430000000	149
11.4730000000	154
11.5030000000	160
11.5330000000	126
11.5630000000	118
11.5930000000	153
11.6230000000	161
11.6530000000	148
11.6830000000	139
11.7130000000	157
11.7430000000	141
11.7730000000	140
11.8030000000	155
11.8330000000	153
11.8630000000	142
11.8930000000	153
11.9230000000	138
11.9530000000	165
11.9830000000	151
12.0130000000	167
12.0430000000	152
12.0730000000	139
12.1030000000	151
12.1330000000	164
12.1630000000	144
12.1930000000	138
12.2230000000	141
12.2530000000	165
12.2830000000	140
12.3130000000	155
12.3430000000	157
12.3730000000	134
12.4030000000	145
12.4330000000	139
12.4630000000	154
12.4930000000	151
12.5230000000	141
12.5530000000	164
12.5830000000	138
12.6130000000	143
12.6430000000	161
12.6730000000	156
12.7030000000	152
12.7330000000	144
12.7630000000	144
12.7930000000	156
12.8230000000	144
12.8530000000	136
12.8830000000	131
12.9130000000	132
12.9430000000	148
12.9730000000	155
13.0030000000	141
13.0330000000	155
13.0630000000	173
13.0930000000	159
13.1230000000	153
13.1530000000	137
13.1830000000	145
13.2130000000	156
13.2430000000	120
13.2730000000	141
13.3030000000	129
13.3330000000	139
13.3630000000	167
13.3930000000	155
13.4230000000	161
13.4530000000	143
13.4830000000	154
13.5130000000	157
13.5430000000	149
13.5730000000	143
13.6030000000	130
13.6330000000	131
13.6630000000	140
13.6930000000	143
13.7230000000	142
13.7530000000	136
13.7830000000	126
13.8130000000	132
13.8430000000	142
13.8730000000	138
13.9030000000	149
13.9330000000	153
13.9630000000	142
13.9930000000	136
14.0230000000	133
14.0530000000	144
14.0830000000	150
14.1130000000	150
14.1430000000	131
14.1730000000	150
14.2030000000	133
14.2330000000	146
14.2630000000	143
14.2930000000	138
14.3230000000	163
14.3530000000	134
14.3830000000	137
14.4130000000	138
14.4430000000	134
14.4730000000	131
14.5030000000	145
14.5330000000	140
14.5630000000	134
14.5930000000	147
14.6230000000	133
14.6530000000	148
14.6830000000	145
14.7130000000	124
14.7430000000	139
14.7730000000	147
14.8030000000	120
14.8330000000	155
14.8630000000	148
14.8930000000	155
14.9230000000	136
14.9530000000	133
14.9830000000	160
15.0130000000	143
15.0430000000	162
15.0730000000	147
15.1030000000	167
15.1330000000	143
15.1630000000	141
15.1930000000	164
15.2230000000	164
15.2530000000	132
15.2830000000	145
15.3130000000	137
15.3430000000	158
15.3730000000	131
15.4030000000	169
15.4330000000	135
15.4630000000	150
15.4930000000	154
15.5230000000	163
15.5530000000	150
15.5830000000	145
15.6130000000	147
15.6430000000	174
15.6730000000	162
15.7030000000	164
15.7330000000	141
15.7630000000	151
15.7930000000	154
15.8230000000	143
15.8530000000	141
15.8830000000	149
15.9130000000	136
15.9430000000	144
15.9730000000	151
16.0030000000	147
16.0330000000	164
16.0630000000	155
16.0930000000	156
16.1230000000	153
16.1530000000	150
16.1830000000	142
16.2130000000	140
16.2430000000	155
16.2730000000	133
16.3030000000	131
16.3330000000	135
16.3630000000	135
16.3930000000	147
16.4230000000	151
16.4530000000	138
16.4830000000	130
16.5130000000	152
16.5430000000	151
16.5730000000	126
16.6030000000	131
16.6330000000	165
16.6630000000	153
16.6930000000	145
16.7230000000	152
16.7530000000	160
16.7830000000	154
16.8130000000	156
16.8430000000	157
16.8730000000	151
16.9030000000	141
16.9330000000	139
16.9630000000	150
16.9930000000	150
17.0230000000	151
17.0530000000	154
17.0830000000	145
17.1130000000	128
17.1430000000	145
17.1730000000	131
17.2030000000	161
17.2330000000	144
17.2630000000	140
17.2930000000	146
17.3230000000	126
17.3530000000	149
17.3830000000	159
17.4130000000	154
17.4430000000	143
17.4730000000	158
17.5030000000	149
17.5330000000	141
17.5630000000	145
17.5930000000	150
17.6230000000	146
17.6530000000	159
17.6830000000	163
17.7130000000	159
17.7430000000	156
17.7730000000	146
17.8030000000	142
17.8330000000	149
17.8630000000	151
17.8930000000	149
17.9230000000	161
17.9530000000	149
17.9830000000	134
18.0130000000	139
18.0430000000	137
18.0730000000	144
18.1030000000	140
18.1330000000	127
18.1630000000	155
18.1930000000	152
18.2230000000	150
18.2530000000	128
18.2830000000	143
18.3130000000	141
18.3430000000	159
18.3730000000	144
18.4030000000	136
18.4330000000	162
18.4630000000	148
18.4930000000	143
18.5230000000	135
18.5530000000	141
18.5830000000	140
18.6130000000	142
18.6430000000	130
18.6730000000	128
18.7030000000	132
18.7330000000	160
18.7630000000	139
18.7930000000	161
18.8230000000	157
18.8530000000	149
18.8830000000	159
18.9130000000	164
18.9430000000	152
18.9730000000	141
19.0030000000	115
19.0330000000	143
19.0630000000	144
19.0930000000	167
19.1230000000	154
19.1530000000	152
19.1830000000	151
19.2130000000	158
19.2430000000	156
19.2730000000	145
19.3030000000	168
19.3330000000	177
19.3630000000	152
19.3930000000	160
19.4230000000	140
19.4530000000	163
19.4830000000	148
19.5130000000	117
19.5430000000	143
19.5730000000	153
19.6030000000	149
19.6330000000	148
19.6630000000	170
19.6930000000	157
19.7230000000	134
19.7530000000	158
19.7830000000	159
19.8130000000	137
19.8430000000	156
19.8730000000	143
19.9030000000	154
19.9330000000	164
19.9630000000	125
19.9930000000	145
20.0230000000	140
20.0530000000	170
20.0830000000	148
20.1130000000	167
20.1430000000	175
20.1730000000	143
20.2030000000	154
20.2330000000	140
20.2630000000	183
20.2930000000	162
20.3230000000	142
20.3530000000	173
20.3830000000	190
20.4130000000	155
20.4430000000	167
20.4730000000	178
20.5030000000	181
20.5330000000	167
20.5630000000	194
20.5930000000	211
20.6230000000	228
20.6530000000	265
20.6830000000	372
20.7130000000	583
20.7430000000	1063
20.7730000000	1478
20.8030000000	2213
20.8330000000	3587
20.8630000000	5755
20.8930000000	7944
20.9230000000	7644
20.9530000000	5440
20.9830000000	3100
21.0130000000	1885
21.0430000000	1124
21.0730000000	762
21.1030000000	410
21.1330000000	263
21.1630000000	213
21.1930000000	219
21.2230000000	187
21.2530000000	198
21.2830000000	177
21.3130000000	180
21.3430000000	183
21.3730000000	167
21.4030000000	157
21.4330000000	154
21.4630000000	181
21.4930000000	171
21.5230000000	171
21.5530000000	153
21.5830000000	168
21.6130000000	169
21.6430000000	159
21.6730000000	138
21.7030000000	158
21.7330000000	180
21.7630000000	158
21.7930000000	149
21.8230000000	149
21.8530000000	164
21.8830000000	157
21.9130000000	155
21.9430000000	157
21.9730000000	161
22.0030000000	164
22.0330000000	176
22.0630000000	161
22.0930000000	163
22.1230000000	157
22.1530000000	164
22.1830000000	166
22.2130000000	153
22.2430000000	155
22.2730000000	171
22.3030000000	182
22.3330000000	172
22.3630000000	172
22.3930000000	174
22.4230000000	157
22.4530000000	159
22.4830000000	172
22.5130000000	164
22.5430000000	161
22.5730000000	183
22.6030000000	175
22.6330000000	157
22.6630000000	144
22.6930000000	128
22.7230000000	154
22.7530000000	164
22.7830000000	172
22.8130000000	158
22.8430000000	170
22.8730000000	173
22.9030000000	165
22.9330000000	176
22.9630000000	154
22.9930000000	156
23.0230000000	179
23.0530000000	166
23.0830000000	169
23.1130000000	159
23.1430000000	175
23.1730000000	187
23.2030000000	168
23.2330000000	168
23.2630000000	188
23.2930000000	160
23.3230000000	169
23.3530000000	162
23.3830000000	167
23.4130000000	162
23.4430000000	170
23.4730000000	157
23.5030000000	145
23.5330000000	169
23.5630000000	177
23.5930000000	157
23.6230000000	175
23.6530000000	151
23.6830000000	174
23.7130000000	184
23.7430000000	174
23.7730000000	168
23.8030000000	182
23.8330000000	168
23.8630000000	190
23.8930000000	185
23.9230000000	162
23.9530000000	169
23.9830000000	176
24.0130000000	169
24.0430000000	165
24.0730000000	184
24.1030000000	185
24.1330000000	151
24.1630000000	146
24.1930000000	161
24.2230000000	192
24.2530000000	171
24.2830000000	171
24.3130000000	204
24.3430000000	165
24.3730000000	181
24.4030000000	167
24.4330000000	145
24.4630000000	164
24.4930000000	182
24.5230000000	145
24.5530000000	152
24.5830000000	197
24.6130000000	163
24.6430000000	166
24.6730000000	174
24.7030000000	166
24.7330000000	175
24.7630000000	161
24.7930000000	166
24.8230000000	153
24.8530000000	153
24.8830000000	158
24.9130000000	174
24.9430000000	156
24.9730000000	164
25.0030000000	144
25.0330000000	173
25.0630000000	164
25.0930000000	152
25.1230000000	160
25.1530000000	167
25.1830000000	156
25.2130000000	179
25.2430000000	154
25.2730000000	170
25.3030000000	169
25.3330000000	183
25.3630000000	179
25.3930000000	180
25.4230000000	173
25.4530000000	209
25.4830000000	203
25.5130000000	229
25.5430000000	260
25.5730000000	251
25.6030000000	255
25.6330000000	201
25.6630000000	210
25.6930000000	187
25.7230000000	174
25.7530000000	170
25.7830000000	171
25.8130000000	164
25.8430000000	161
25.8730000000	184
25.9030000000	160
25.9330000000	159
25.9630000000	168
25.9930000000	176
26.0230000000	153
26.0530000000	166
26.0830000000	167
26.1130000000	153
26.1430000000	161
26.1730000000	168
26.2030000000	177
26.2330000000	169
26.2630000000	163
26.2930000000	171
26.3230000000	155
26.3530000000	149
26.3830000000	165
26.4130000000	170
26.4430000000	167
26.4730000000	161
26.5030000000	160
26.5330000000	171
26.5630000000	155
26.5930000000	151
26.6230000000	148
26.6530000000	140
26.6830000000	166
26.7130000000	163
26.7430000000	162
26.7730000000	166
26.8030000000	164
26.8330000000	155
26.8630000000	157
26.8930000000	160
26.9230000000	141
26.9530000000	144
26.9830000000	140
27.0130000000	145
27.0430000000	149
27.0730000000	145
27.1030000000	158
27.1330000000	156
27.1630000000	154
27.1930000000	169
27.2230000000	173
27.2530000000	133
27.2830000000	161
27.3130000000	156
27.3430000000	153
27.3730000000	156
27.4030000000	150
27.4330000000	128
27.4630000000	128
27.4930000000	146
27.5230000000	159
27.5530000000	144
27.5830000000	134
27.6130000000	177
27.6430000000	147
27.6730000000	143
27.7030000000	149
27.7330000000	140
27.7630000000	158
27.7930000000	151
27.8230000000	164
27.8530000000	172
27.8830000000	135
27.9130000000	168
27.9430000000	148
27.9730000000	155
28.0030000000	157
28.0330000000	150
28.0630000000	143
28.0930000000	120
28.1230000000	147
28.1530000000	153
28.1830000000	154
28.2130000000	168
28.2430000000	139
28.2730000000	148
28.3030000000	146
28.3330000000	166
28.3630000000	142
28.3930000000	179
28.4230000000	154
28.4530000000	149
28.4830000000	148
28.5130000000	139
28.5430000000	142
28.5730000000	170
28.6030000000	145
28.6330000000	141
28.6630000000	165
28.6930000000	148
28.7230000000	172
28.7530000000	146
28.7830000000	154
28.8130000000	154
28.8430000000	155
28.8730000000	161
28.9030000000	129
28.9330000000	128
28.9630000000	167
28.9930000000	159
29.0230000000	175
29.0530000000	154
29.0830000000	153
29.1130000000	146
29.1430000000	127
29.1730000000	143
29.2030000000	146
29.2330000000	144
29.2630000000	139
29.2930000000	150
29.3230000000	145
29.3530000000	124
29.3830000000	140
29.4130000000	136
29.4430000000	149
29.4730000000	154
29.5030000000	116
29.5330000000	117
29.5630000000	129
29.5930000000	135
29.6230000000	132
29.6530000000	147
29.6830000000	131
29.7130000000	153
29.7430000000	143
29.7730000000	124
29.8030000000	128
29.8330000000	128
29.8630000000	143
29.8930000000	133
29.9230000000	127
29.9530000000	143
29.9830000000	138
30.0130000000	148
30.0430000000	142
30.0730000000	145
30.1030000000	173
30.1330000000	136
30.1630000000	146
30.1930000000	139
30.2230000000	142
30.2530000000	160
30.2830000000	146
30.3130000000	127
30.3430000000	118
30.3730000000	138
30.4030000000	131
30.4330000000	131
30.4630000000	142
30.4930000000	131
30.5230000000	147
30.5530000000	123
30.5830000000	131
30.6130000000	151
30.6430000000	161
30.6730000000	114
30.7030000000	136
30.7330000000	130
30.7630000000	135
30.7930000000	128
30.8230000000	128
30.8530000000	140
30.8830000000	130
30.9130000000	132
30.9430000000	126
30.9730000000	118
31.0030000000	139
31.0330000000	144
31.0630000000	123
31.0930000000	133
31.1230000000	128
31.1530000000	127
31.1830000000	152
31.2130000000	147
31.2430000000	144
31.2730000000	132
31.3030000000	147
31.3330000000	118
31.3630000000	111
31.3930000000	140
31.4230000000	134
31.4530000000	123
31.4830000000	130
31.5130000000	133
31.5430000000	138
31.5730000000	136
31.6030000000	127
31.6330000000	127
31.6630000000	122
31.6930000000	125
31.7230000000	112
31.7530000000	133
31.7830000000	122
31.8130000000	104
31.8430000000	119
31.8730000000	124
31.9030000000	143
31.9330000000	126
31.9630000000	109
31.9930000000	120
32.0230000000	129
32.0530000000	133
32.0830000000	123
32.1130000000	148
32.1430000000	144
32.1730000000	122
32.2030000000	137
32.2330000000	121
32.2630000000	126
32.2930000000	126
32.3230000000	128
32.3530000000	130
32.3830000000	136
32.4130000000	131
32.4430000000	111
32.4730000000	128
32.5030000000	124
32.5330000000	116
32.5630000000	116
32.5930000000	138
32.6230000000	117
32.6530000000	134
32.6830000000	142
32.7130000000	133
32.7430000000	116
32.7730000000	141
32.8030000000	142
32.8330000000	150
32.8630000000	166
32.8930000000	186
32.9230000000	213
32.9530000000	230
32.9830000000	338
33.0130000000	391
33.0430000000	740
33.0730000000	1206
33.1030000000	1799
33.1330000000	2838
33.1630000000	4466
33.1930000000	6854
33.2230000000	8477
33.2530000000	8021
33.2830000000	5923
33.3130000000	3742
33.3430000000	2183
33.3730000000	1269
33.4030000000	753
33.4330000000	448
33.4630000000	310
33.4930000000	255
33.5230000000	187
33.5530000000	184
33.5830000000	181
33.6130000000	168
33.6430000000	159
33.6730000000	150
33.7030000000	137
33.7330000000	135
33.7630000000	140
33.7930000000	137
33.8230000000	133
33.8530000000	129
33.8830000000	134
33.9130000000	140
33.9430000000	138
33.9730000000	133
34.0030000000	118
34.0330000000	124
34.0630000000	118
34.0930000000	107
34.1230000000	100
34.1530000000	123
34.1830000000	129
34.2130000000	126
34.2430000000	119
34.2730000000	101
34.3030000000	113
34.3330000000	113
34.3630000000	120
34.3930000000	114
34.4230000000	112
34.4530000000	116
34.4830000000	115
34.5130000000	120
34.5430000000	112
34.5730000000	98
34.6030000000	109
34.6330000000	107
34.6630000000	108
34.6930000000	109
34.7230000000	137
34.7530000000	129
34.7830000000	103
34.8130000000	115
34.8430000000	118
34.8730000000	106
34.9030000000	111
34.9330000000	115
34.9630000000	116
34.9930000000	120
35.0230000000	111
35.0530000000	94
35.0830000000	102
35.1130000000	114
35.1430000000	115
35.1730000000	114
35.2030000000	101
35.2330000000	109
35.2630000000	112
35.2930000000	107
35.3230000000	106
35.3530000000	102
35.3830000000	85
35.4130000000	101
35.4430000000	106
35.4730000000	107
35.5030000000	118
35.5330000000	109
35.5630000000	114
35.5930000000	107
35.6230000000	97
35.6530000000	109
35.6830000000	113
35.7130000000	114
35.7430000000	108
35.7730000000	110
35.8030000000	102
35.8330000000	102
35.8630000000	90
35.8930000000	91
35.9230000000	109
35.9530000000	111
35.9830000000	81
36.0130000000	101
36.0430000000	94
36.0730000000	104
36.1030000000	95
36.1330000000	96
36.1630000000	125
36.1930000000	108
36.2230000000	131
36.2530000000	124
36.2830000000	131
36.3130000000	192
36.3430000000	182
36.3730000000	228
36.4030000000	249
36.4330000000	240
36.4630000000	226
36.4930000000	217
36.5230000000	193
36.5530000000	157
36.5830000000	105
36.6130000000	104
36.6430000000	112
36.6730000000	104
36.7030000000	99
36.7330000000	107
36.7630000000	100
36.7930000000	91
36.8230000000	116
36.8530000000	97
36.8830000000	100
36.9130000000	114
36.9430000000	78
36.9730000000	103
37.0030000000	109
37.0330000000	90
37.0630000000	94
37.0930000000	101
37.1230000000	90
37.1530000000	99
37.1830000000	96
37.2130000000	93
37.2430000000	89
37.2730000000	99
37.3030000000	97
37.3330000000	104
37.3630000000	125
37.3930000000	96
37.4230000000	90
37.4530000000	96
37.4830000000	93
37.5130000000	111
37.5430000000	112
37.5730000000	97
37.6030000000	96
37.6330000000	91
37.6630000000	109
37.6930000000	88
37.7230000000	91
37.7530000000	115
37.7830000000	108
37.8130000000	91
37.8430000000	81
37.8730000000	90
37.9030000000	89
37.9330000000	94
37.9630000000	98
37.9930000000	91
38.0230000000	93
38.0530000000	106
38.0830000000	118
38.1130000000	95
38.1430000000	88
38.1730000000	91
38.2030000000	85
38.2330000000	99
38.2630000000	101
38.2930000000	90
38.3230000000	101
38.3530000000	93
38.3830000000	89
38.4130000000	101
38.4430000000	85
38.4730000000	94
38.5030000000	101
38.5330000000	101
38.5630000000	107
38.5930000000	87
38.6230000000	81
38.6530000000	97
38.6830000000	91
38.7130000000	106
38.7430000000	116
38.7730000000	96
38.8030000000	89
38.8330000000	92
38.8630000000	82
38.8930000000	92
38.9230000000	94
38.9530000000	92
38.9830000000	99
39.0130000000	92
39.0430000000	101
39.0730000000	87
39.1030000000	101
39.1330000000	97
39.1630000000	93
39.1930000000	88
39.2230000000	100
39.2530000000	95
39.2830000000	98
39.3130000000	98
39.3430000000	79
39.3730000000	91
39.4030000000	86
39.4330000000	89
39.4630000000	109
39.4930000000	80
39.5230000000	90
39.5530000000	81
39.5830000000	92
39.6130000000	100
39.6430000000	68
39.6730000000	87
39.7030000000	107
39.7330000000	108
39.7630000000	114
39.7930000000	104
39.8230000000	92
39.8530000000	89
39.8830000000	98
39.9130000000	101
39.9430000000	123
39.9730000000	105
40.0030000000	84
40.0330000000	98
40.0630000000	77
40.0930000000	84
40.1230000000	104
40.1530000000	93
40.1830000000	109
40.2130000000	87
40.2430000000	90
40.2730000000	79
40.3030000000	88
40.3330000000	111
40.3630000000	104
40.3930000000	94
40.4230000000	87
40.4530000000	93
40.4830000000	108
40.5130000000	92
40.5430000000	106
40.5730000000	82
40.6030000000	98
40.6330000000	88
40.6630000000	115
40.6930000000	106
40.7230000000	112
40.7530000000	122
40.7830000000	143
40.8130000000	175
40.8430000000	216
40.8730000000	274
40.9030000000	374
40.9330000000	431
40.9630000000	513
40.9930000000	448
41.0230000000	364
41.0530000000	234
41.0830000000	189
41.1130000000	163
41.1430000000	122
41.1730000000	131
41.2030000000	98
41.2330000000	101
41.2630000000	106
41.2930000000	98
41.3230000000	100
41.3530000000	84
41.3830000000	86
41.4130000000	90
41.4430000000	113
41.4730000000	98
41.5030000000	100
41.5330000000	92
41.5630000000	90
41.5930000000	96
41.6230000000	105
41.6530000000	91
41.6830000000	77
41.7130000000	81
41.7430000000	85
41.7730000000	94
41.8030000000	100
41.8330000000	90
41.8630000000	107
41.8930000000	109
41.9230000000	91
41.9530000000	86
41.9830000000	83
42.0130000000	102
42.0430000000	106
42.0730000000	85
42.1030000000	74
42.1330000000	96
42.1630000000	100
42.1930000000	117
42.2230000000	120
42.2530000000	147
42.2830000000	166
42.3130000000	190
42.3430000000	210
42.3730000000	213
42.4030000000	212
42.4330000000	239
42.4630000000	239
42.4930000000	239
42.5230000000	255
42.5530000000	226
42.5830000000	198
42.6130000000	191
42.6430000000	170
42.6730000000	134
42.7030000000	106
42.7330000000	102
42.7630000000	98
42.7930000000	100
42.8230000000	122
42.8530000000	90
42.8830000000	111
42.9130000000	95
42.9430000000	81
42.9730000000	79
43.0030000000	81
43.0330000000	91
43.0630000000	104
43.0930000000	87
43.1230000000	90
43.1530000000	69
43.1830000000	81
43.2130000000	71
43.2430000000	98
43.2730000000	90
43.3030000000	88
43.3330000000	84
43.3630000000	92
43.3930000000	97
43.4230000000	107
43.4530000000	84
43.4830000000	68
43.5130000000	100
43.5430000000	89
43.5730000000	79
43.6030000000	103
43.6330000000	92
43.6630000000	97
43.6930000000	82
43.7230000000	97
43.7530000000	97
43.7830000000	103
43.8130000000	90
43.8430000000	79
43.8730000000	83
43.9030000000	91
43.9330000000	78
43.9630000000	92
43.9930000000	94
44.0230000000	81
44.0530000000	70
44.0830000000	82
44.1130000000	96
44.1430000000	97
44.1730000000	85
44.2030000000	94
44.2330000000	94
44.2630000000	89
44.2930000000	101
44.3230000000	92
44.3530000000	83
44.3830000000	85
44.4130000000	80
44.4430000000	85
44.4730000000	103
44.5030000000	87
44.5330000000	81
44.5630000000	94
44.5930000000	106
44.6230000000	77
44.6530000000	97
44.6830000000	99
44.7130000000	70
44.7430000000	87
44.7730000000	94
44.8030000000	85
44.8330000000	75
44.8630000000	91
44.8930000000	91
44.9230000000	87
44.9530000000	102
44.9830000000	85
45.0130000000	92
45.0430000000	78
45.0730000000	93
45.1030000000	83
45.1330000000	95
45.1630000000	69
45.1930000000	82
45.2230000000	97
45.2530000000	80
45.2830000000	96
45.3130000000	77
45.3430000000	89
45.3730000000	93
45.4030000000	81
45.4330000000	91
45.4630000000	95
45.4930000000	83
45.5230000000	79
45.5530000000	90
45.5830000000	96
45.6130000000	97
45.6430000000	92
45.6730000000	90
45.7030000000	89
45.7330000000	88
45.7630000000	89
45.7930000000	83
45.8230000000	91
45.8530000000	84
45.8830000000	83
45.9130000000	91
45.9430000000	95
45.9730000000	106
46.0030000000	91
46.0330000000	81
46.0630000000	92
46.0930000000	80
46.1230000000	82
46.1530000000	89
46.1830000000	101
46.2130000000	81
46.2430000000	104
46.2730000000	101
46.3030000000	115
46.3330000000	127
46.3630000000	100
46.3930000000	118
46.4230000000	131
46.4530000000	118
46.4830000000	106
46.5130000000	103
46.5430000000	67
46.5730000000	108
46.6030000000	88
46.6330000000	82
46.6630000000	83
46.6930000000	74
46.7230000000	79
46.7530000000	82
46.7830000000	89
46.8130000000	82
46.8430000000	71
46.8730000000	87
46.9030000000	57
46.9330000000	79
46.9630000000	72
46.9930000000	81
47.0230000000	75
47.0530000000	80
47.0830000000	69
47.1130000000	85
47.1430000000	72
47.1730000000	80
47.2030000000	79
47.2330000000	82
47.2630000000	81
47.2930000000	66
47.3230000000	59
47.3530000000	61
47.3830000000	69
47.4130000000	79
47.4430000000	94
47.4730000000	60
47.5030000000	70
47.5330000000	58
47.5630000000	83
47.5930000000	69
47.6230000000	79
47.6530000000	66
47.6830000000	82
47.7130000000	66
47.7430000000	78
47.7730000000	71
47.8030000000	67
47.8330000000	80
47.8630000000	74
47.8930000000	63
47.9230000000	83
47.9530000000	77
47.9830000000	91
48.0130000000	63
48.0430000000	55
48.0730000000	64
48.1030000000	62
48.1330000000	72
48.1630000000	64
48.1930000000	73
48.2230000000	75
48.2530000000	66
48.2830000000	67
48.3130000000	58
48.3430000000	62
48.3730000000	69
48.4030000000	77
48.4330000000	76
48.4630000000	71
48.4930000000	54
48.5230000000	66
48.5530000000	68
48.5830000000	70
48.6130000000	77
48.6430000000	84
48.6730000000	74
48.7030000000	53
48.7330000000	69
48.7630000000	68
48.7930000000	64
48.8230000000	72
48.8530000000	77
48.8830000000	76
48.9130000000	71
48.9430000000	65
48.9730000000	60
49.0030000000	63
49.0330000000	77
49.0630000000	90
49.0930000000	82
49.1230000000	70
49.1530000000	65
49.1830000000	67
49.2130000000	68
49.2430000000	80
49.2730000000	74
49.3030000000	73
49.3330000000	63
49.3630000000	81
49.3930000000	79
49.4230000000	73
49.4530000000	63
49.4830000000	78
49.5130000000	80
49.5430000000	74
49.5730000000	69
49.6030000000	72
49.6330000000	68
49.6630000000	68
49.6930000000	73
49.7230000000	78
49.7530000000	67
49.7830000000	56
49.8130000000	69
49.8430000000	70
49.8730000000	58
49.9030000000	67
49.9330000000	68
49.9630000000	65
49.9930000000	86
50.0230000000	80
50.0530000000	59
50.0830000000	57
50.1130000000	80
50.1430000000	69
50.1730000000	85
50.2030000000	66
50.2330000000	84
50.2630000000	98
50.2930000000	88
50.3230000000	77
50.3530000000	93
50.3830000000	89
50.4130000000	72
50.4430000000	77
50.4730000000	84
50.5030000000	63
50.5330000000	65
50.5630000000	58
50.5930000000	66
50.6230000000	59
50.6530000000	62
50.6830000000	65
50.7130000000	62
50.7430000000	67
50.7730000000	71
50.8030000000	69
50.8330000000	62
50.8630000000	60
50.8930000000	69
50.9230000000	65
50.9530000000	67
50.9830000000	65
51.0130000000	67
51.0430000000	58
51.0730000000	66
51.1030000000	60
51.1330000000	61
51.1630000000	57
51.1930000000	60
51.2230000000	63
51.2530000000	70
51.2830000000	62
51.3130000000	59
51.3430000000	65
51.3730000000	65
51.4030000000	54
51.4330000000	57
51.4630000000	57
51.4930000000	69
51.5230000000	71
51.5530000000	60
51.5830000000	57
51.6130000000	59
51.6430000000	60
51.6730000000	59
51.7030000000	59
51.7330000000	59
51.7630000000	45
51.7930000000	52
51.8230000000	59
51.8530000000	49
51.8830000000	59
51.9130000000	52
51.9430000000	54
51.9730000000	52
52.0030000000	56
52.0330000000	62
52.0630000000	66
52.0930000000	62
52.1230000000	54
52.1530000000	55
52.1830000000	57
52.2130000000	61
52.2430000000	62
52.2730000000	64
52.3030000000	61
52.3330000000	67
52.3630000000	79
52.3930000000	58
52.4230000000	63
52.4530000000	87
52.4830000000	82
52.5130000000	63
52.5430000000	83
52.5730000000	89
52.6030000000	80
52.6330000000	73
52.6630000000	53
52.6930000000	85
52.7230000000	68
52.7530000000	63
52.7830000000	66
52.8130000000	57
52.8430000000	46
52.8730000000	64
52.9030000000	53
52.9330000000	44
52.9630000000	60
52.9930000000	51
53.0230000000	59
53.0530000000	60
53.0830000000	47
53.1130000000	59
53.1430000000	57
53.1730000000	63
53.2030000000	46
53.2330000000	61
53.2630000000	57
53.2930000000	63
53.3230000000	54
53.3530000000	71
53.3830000000	58
53.4130000000	55
53.4430000000	66
53.4730000000	61
53.5030000000	43
53.5330000000	64
53.5630000000	62
53.5930000000	58
53.6230000000	58
53.6530000000	52
53.6830000000	61
53.7130000000	67
53.7430000000	64
53.7730000000	56
53.8030000000	51
53.8330000000	57
53.8630000000	40
53.8930000000	53
53.9230000000	69
53.9530000000	56
53.9830000000	61
54.0130000000	64
54.0430000000	63
54.0730000000	49
54.1030000000	60
54.1330000000	62
54.1630000000	62
54.1930000000	52
54.2230000000	55
54.2530000000	46
54.2830000000	62
54.3130000000	62
54.3430000000	56
54.3730000000	58
54.4030000000	70
54.4330000000	64
54.4630000000	68
54.4930000000	71
54.5230000000	56
54.5530000000	48
54.5830000000	50
54.6130000000	67
54.6430000000	53
54.6730000000	66
54.7030000000	44
54.7330000000	58
54.7630000000	67
54.7930000000	46
54.8230000000	62
54.8530000000	48
54.8830000000	68
54.9130000000	58
54.9430000000	66
54.9730000000	53
55.0030000000	63
55.0330000000	65
55.0630000000	55
55.0930000000	55
55.1230000000	47
55.1530000000	50
55.1830000000	55
55.2130000000	60
55.2430000000	57
55.2730000000	56
55.3030000000	42
55.3330000000	56
55.3630000000	51
55.3930000000	55
55.4230000000	64
55.4530000000	45
55.4830000000	53
55.5130000000	53
55.5430000000	58
55.5730000000	57
55.6030000000	66
55.6330000000	57
55.6630000000	50
55.6930000000	42
55.7230000000	61
55.7530000000	46
55.7830000000	54
55.8130000000	67
55.8430000000	50
55.8730000000	68
55.9030000000	57
55.9330000000	47
55.9630000000	50
55.9930000000	46
56.0230000000	76
56.0530000000	62
56.0830000000	47
56.1130000000	52
56.1430000000	55
56.1730000000	62
56.2030000000	45
56.2330000000	55
56.2630000000	52
56.2930000000	50
56.3230000000	58
56.3530000000	51
56.3830000000	53
56.4130000000	40
56.4430000000	58
56.4730000000	61
56.5030000000	53
56.5330000000	60
56.5630000000	47
56.5930000000	60
56.6230000000	54
56.6530000000	59
56.6830000000	60
56.7130000000	42
56.7430000000	48
56.7730000000	50
56.8030000000	54
56.8330000000	61
56.8630000000	50
56.8930000000	56
56.9230000000	59
56.9530000000	67
56.9830000000	58
57.0130000000	60
57.0430000000	61
57.0730000000	71
57.1030000000	60
57.1330000000	63
57.1630000000	65
57.1930000000	68
57.2230000000	75
57.2530000000	76
57.2830000000	55
57.3130000000	62
57.3430000000	55
57.3730000000	47
57.4030000000	66
57.4330000000	54
57.4630000000	47
57.4930000000	43
57.5230000000	58
57.5530000000	46
57.5830000000	46
57.6130000000	62
57.6430000000	53
57.6730000000	46
57.7030000000	46
57.7330000000	58
57.7630000000	40
57.7930000000	58
57.8230000000	61
57.8530000000	46
57.8830000000	47
57.9130000000	48
57.9430000000	51
57.9730000000	53
58.0030000000	36
58.0330000000	42
58.0630000000	59
58.0930000000	56
58.1230000000	48
58.1530000000	53
58.1830000000	48
58.2130000000	46
58.2430000000	40
58.2730000000	39
58.3030000000	43
58.3330000000	41
58.3630000000	45
58.3930000000	36
58.4230000000	47
58.4530000000	42
58.4830000000	59
58.5130000000	55
58.5430000000	48
58.5730000000	58
58.6030000000	51
58.6330000000	37
58.6630000000	53
58.6930000000	50
58.7230000000	42
58.7530000000	42
58.7830000000	40
58.8130000000	54
58.8430000000	47
58.8730000000	47
58.9030000000	47
58.9330000000	47
58.9630000000	48
58.9930000000	48
59.0230000000	43
59.0530000000	66
59.0830000000	45
59.1130000000	48
59.1430000000	40
59.1730000000	44
59.2030000000	61
59.2330000000	50
59.2630000000	51
59.2930000000	54
59.3230000000	48
59.3530000000	52
59.3830000000	45
59.4130000000	55
59.4430000000	60
59.4730000000	55
59.5030000000	46
59.5330000000	46
59.5630000000	51
59.5930000000	50
59.6230000000	43
59.6530000000	59
59.6830000000	62
59.7130000000	46
59.7430000000	39
59.7730000000	53
59.8030000000	52
59.8330000000	53
59.8630000000	58
59.8930000000	45
59.9230000000	47
59.9530000000	61
59.9830000000	56
60.0130000000	56
60.0430000000	52
60.0730000000	50
60.1030000000	54
60.1330000000	42
60.1630000000	41
60.1930000000	39
60.2230000000	54
60.2530000000	53
60.2830000000	59
60.3130000000	44
60.3430000000	71
60.3730000000	67
60.4030000000	76
60.4330000000	50
60.4630000000	78
60.4930000000	64
60.5230000000	57
60.5530000000	67
60.5830000000	50
60.6130000000	45
60.6430000000	62
60.6730000000	61
60.7030000000	55
60.7330000000	32
60.7630000000	42
60.7930000000	46
60.8230000000	49
60.8530000000	48
60.8830000000	44
60.9130000000	57
60.9430000000	46
60.9730000000	56
61.0030000000	56
61.0330000000	52
61.0630000000	55
61.0930000000	57
61.1230000000	47
61.1530000000	55
61.1830000000	43
61.2130000000	40
61.2430000000	44
61.2730000000	41
61.3030000000	39
61.3330000000	50
61.3630000000	41
61.3930000000	43
61.4230000000	57
61.4530000000	47
61.4830000000	51
61.5130000000	42
61.5430000000	65
61.5730000000	50
61.6030000000	43
61.6330000000	63
61.6630000000	62
61.6930000000	42
61.7230000000	44
61.7530000000	52
61.7830000000	46
61.8130000000	55
61.8430000000	52
61.8730000000	51
61.9030000000	40
61.9330000000	52
61.9630000000	56
61.9930000000	38
62.0230000000	48
62.0530000000	50
62.0830000000	59
62.1130000000	44
62.1430000000	49
62.1730000000	57
62.2030000000	41
62.2330000000	56
62.2630000000	43
62.2930000000	47
62.3230000000	53
62.3530000000	54
62.3830000000	48
62.4130000000	54
62.4430000000	56
62.4730000000	60
62.5030000000	57
62.5330000000	57
62.5630000000	42
62.5930000000	43
62.6230000000	50
62.6530000000	46
62.6830000000	46
62.7130000000	46
62.7430000000	36
62.7730000000	43
62.8030000000	42
62.8330000000	46
62.8630000000	59
62.8930000000	42
62.9230000000	42
62.9530000000	54
62.9830000000	43
63.0130000000	43
63.0430000000	45
63.0730000000	31
63.1030000000	43
63.1330000000	48
63.1630000000	41
63.1930000000	42
63.2230000000	47
63.2530000000	52
63.2830000000	52
63.3130000000	47
63.3430000000	49
63.3730000000	66
63.4030000000	77
63.4330000000	75
63.4630000000	94
63.4930000000	122
63.5230000000	104
63.5530000000	101
63.5830000000	97
63.6130000000	106
63.6430000000	106
63.6730000000	74
63.7030000000	69
63.7330000000	73
63.7630000000	63
63.7930000000	58
63.8230000000	49
63.8530000000	46
63.8830000000	58
63.9130000000	56
63.9430000000	55
63.9730000000	50
64.0030000000	41
64.0330000000	38
64.0630000000	52
64.0930000000	62
64.1230000000	47
64.1530000000	41
64.1830000000	50
64.2130000000	52
64.2430000000	63
64.2730000000	38
64.3030000000	49
64.3330000000	48
64.3630000000	41
64.3930000000	50
64.4230000000	47
64.4530000000	45
64.4830000000	49
64.5130000000	43
64.5430000000	49
64.5730000000	62
64.6030000000	57
64.6330000000	51
64.6630000000	44
64.6930000000	46
64.7230000000	41
64.7530000000	46
64.7830000000	48
64.8130000000	42
64.8430000000	43
64.8730000000	51
64.9030000000	53
64.9330000000	43
64.9630000000	43
64.9930000000	34
65.0230000000	47
65.0530000000	39
65.0830000000	50
65.1130000000	44
65.1430000000	44
65.1730000000	41
65.2030000000	59
65.2330000000	52
65.2630000000	52
65.2930000000	30
65.3230000000	38
65.3530000000	50
65.3830000000	53
65.4130000000	46
65.4430000000	49
65.4730000000	52
65.5030000000	51
65.5330000000	29
65.5630000000	47
65.5930000000	43
65.6230000000	42
65.6530000000	47
65.6830000000	51
65.7130000000	39
65.7430000000	47
65.7730000000	52
65.8030000000	55
65.8330000000	46
65.8630000000	68
65.8930000000	47
65.9230000000	58
65.9530000000	46
65.9830000000	42
66.0130000000	44
66.0430000000	40
66.0730000000	41
66.1030000000	50
66.1330000000	46
66.1630000000	47
66.1930000000	45
66.2230000000	58
66.2530000000	48
66.2830000000	46
66.3130000000	49
66.3430000000	50
66.3730000000	44
66.4030000000	35
66.4330000000	42
66.4630000000	49
66.4930000000	52
66.5230000000	47
66.5530000000	47
66.5830000000	42
66.6130000000	32
66.6430000000	39
66.6730000000	47
66.7030000000	50
66.7330000000	34
66.7630000000	35
66.7930000000	43
66.8230000000	40
66.8530000000	40
66.8830000000	49
66.9130000000	33
66.9430000000	30
66.9730000000	45
67.0030000000	57
67.0330000000	43
67.0630000000	41
67.0930000000	44
67.1230000000	43
67.1530000000	46
67.1830000000	48
67.2130000000	52
67.2430000000	56
67.2730000000	45
67.3030000000	56
67.3330000000	59
67.3630000000	53
67.3930000000	44
67.4230000000	50
67.4530000000	51
67.4830000000	39
67.5130000000	51
67.5430000000	39
67.5730000000	48
67.6030000000	46
67.6330000000	50
67.6630000000	55
67.6930000000	43
67.7230000000	47
67.7530000000	56
67.7830000000	41
67.8130000000	41
67.8430000000	50
67.8730000000	48
67.9030000000	51
67.9330000000	45
67.9630000000	50
67.9930000000	48
68.0230000000	41
68.0530000000	59
68.0830000000	66
68.1130000000	63
68.1430000000	59
68.1730000000	45
68.2030000000	46
68.2330000000	51
68.2630000000	46
68.2930000000	42
68.3230000000	41
68.3530000000	40
68.3830000000	36
68.4130000000	55
68.4430000000	47
68.4730000000	48
68.5030000000	46
68.5330000000	32
68.5630000000	42
68.5930000000	38
68.6230000000	39
68.6530000000	54
68.6830000000	54
68.7130000000	49
68.7430000000	44
68.7730000000	52
68.8030000000	57
68.8330000000	49
68.8630000000	49
68.8930000000	41
68.9230000000	46
68.9530000000	50
68.9830000000	59
69.0130000000	47
69.0430000000	42
69.0730000000	43
69.1030000000	57
69.1330000000	36
69.1630000000	53
69.1930000000	40
69.2230000000	38
69.2530000000	33
69.2830000000	41
69.3130000000	43
69.3430000000	51
69.3730000000	42
69.4030000000	51
69.4330000000	47
69.4630000000	54
69.4930000000	56
69.5230000000	49
69.5530000000	48
69.5830000000	41
69.6130000000	46
69.6430000000	47
69.6730000000	37
69.7030000000	31
69.7330000000	46
69.7630000000	53
69.7930000000	49
69.8230000000	38
69.8530000000	50
69.8830000000	42
69.9130000000	44
69.9430000000	42
69.9730000000	42
70.0030000000	42
70.0330000000	51
70.0630000000	34
70.0930000000	45
70.1230000000	36
70.1530000000	61
70.1830000000	47
70.2130000000	41
70.2430000000	41
70.2730000000	42
70.3030000000	44
70.3330000000	40
70.3630000000	53
70.3930000000	46
70.4230000000	42
70.4530000000	42
70.4830000000	49
70.5130000000	47
70.5430000000	57
70.5730000000	34
70.6030000000	49
70.6330000000	55
70.6630000000	43
70.6930000000	38
70.7230000000	40
70.7530000000	46
70.7830000000	64
70.8130000000	39
70.8430000000	39
70.8730000000	46
70.9030000000	33
70.9330000000	44
70.9630000000	42
70.9930000000	45
71.0230000000	49
71.0530000000	39
71.0830000000	43
71.1130000000	46
71.1430000000	42
71.1730000000	41
71.2030000000	45
71.2330000000	38
71.2630000000	41
71.2930000000	44
71.3230000000	37
71.3530000000	37
71.3830000000	52
71.4130000000	48
71.4430000000	48
71.4730000000	50
71.5030000000	38
71.5330000000	50
71.5630000000	48
71.5930000000	35
71.6230000000	43
71.6530000000	52
71.6830000000	41
71.7130000000	51
71.7430000000	54
71.7730000000	38
71.8030000000	47
71.8330000000	42
71.8630000000	46
71.8930000000	51
71.9230000000	50
71.9530000000	52
71.9830000000	36
72.0130000000	51
72.0430000000	58
72.0730000000	42
72.1030000000	55
72.1330000000	45
72.1630000000	48
72.1930000000	42
72.2230000000	38
72.2530000000	37
72.2830000000	50
72.3130000000	46
72.3430000000	38
72.3730000000	42
72.4030000000	62
72.4330000000	42
72.4630000000	51
72.4930000000	52
72.5230000000	48
72.5530000000	57
72.5830000000	56
72.6130000000	61
72.6430000000	60
72.6730000000	45
72.7030000000	61
72.7330000000	54
72.7630000000	59
72.7930000000	52
72.8230000000	51
72.8530000000	48
72.8830000000	58
72.9130000000	58
72.9430000000	58
72.9730000000	47
73.0030000000	54
73.0330000000	36
73.0630000000	45
73.0930000000	38
73.1230000000	36
73.1530000000	55
73.1830000000	37
73.2130000000	51
73.2430000000	58
73.2730000000	47
73.3030000000	35
73.3330000000	50
73.3630000000	49
73.3930000000	35
73.4230000000	39
73.4530000000	52
73.4830000000	46
73.5130000000	52
73.5430000000	56
73.5730000000	47
73.6030000000	44
73.6330000000	38
73.6630000000	44
73.6930000000	55
73.7230000000	58
73.7530000000	54
73.7830000000	42
73.8130000000	50
73.8430000000	52
73.8730000000	54
73.9030000000	49
73.9330000000	48
73.9630000000	58
73.9930000000	52
74.0230000000	40
74.0530000000	39
74.0830000000	51
74.1130000000	53
74.1430000000	52
74.1730000000	47
74.2030000000	42
74.2330000000	53
74.2630000000	32
74.2930000000	66
74.3230000000	39
74.3530000000	33
74.3830000000	42
74.4130000000	45
74.4430000000	41
74.4730000000	47
74.5030000000	50
74.5330000000	56
74.5630000000	40
74.5930000000	35
74.6230000000	44
74.6530000000	41
74.6830000000	50
74.7130000000	56
74.7430000000	46
74.7730000000	39
74.8030000000	42
74.8330000000	48
74.8630000000	52
74.8930000000	47
74.9230000000	53
74.9530000000	44
74.9830000000	34
75.0130000000	55
75.0430000000	51
75.0730000000	46
75.1030000000	49
75.1330000000	43
75.1630000000	59
75.1930000000	48
75.2230000000	56
75.2530000000	56
75.2830000000	62
75.3130000000	61
75.3430000000	59
75.3730000000	61
75.4030000000	61
75.4330000000	75
75.4630000000	99
75.4930000000	97
75.5230000000	138
75.5530000000	170
75.5830000000	221
75.6130000000	280
75.6430000000	309
75.6730000000	277
75.7030000000	317
75.7330000000	246
75.7630000000	219
75.7930000000	209
75.8230000000	200
75.8530000000	209
75.8830000000	160
75.9130000000	147
75.9430000000	117
75.9730000000	84
76.0030000000	61
76.0330000000	60
76.0630000000	58
76.0930000000	47
76.1230000000	46
76.1530000000	54
76.1830000000	56
76.2130000000	56
76.2430000000	48
76.2730000000	51
76.3030000000	50
76.3330000000	40
76.3630000000	38
76.3930000000	61
76.4230000000	52
76.4530000000	45
76.4830000000	35
76.5130000000	50
76.5430000000	40
76.5730000000	34
76.6030000000	37
76.6330000000	41
76.6630000000	44
76.6930000000	41
76.7230000000	30
76.7530000000	44
76.7830000000	47
76.8130000000	53
76.8430000000	34
76.8730000000	48
76.9030000000	49
76.9330000000	52
76.9630000000	40
76.9930000000	46
77.0230000000	55
77.0530000000	41
77.0830000000	48
77.1130000000	43
77.1430000000	46
77.1730000000	62
77.2030000000	30
77.2330000000	54
77.2630000000	41
77.2930000000	41
77.3230000000	45
77.3530000000	43
77.3830000000	55
77.4130000000	39
77.4430000000	41
77.4730000000	41
77.5030000000	31
77.5330000000	46
77.5630000000	45
77.5930000000	43
77.6230000000	45
77.6530000000	40
77.6830000000	41
77.7130000000	45
77.7430000000	37
77.7730000000	39
77.8030000000	45
77.8330000000	34
77.8630000000	47
77.8930000000	39
77.9230000000	48
77.9530000000	36
77.9830000000	35
78.0130000000	43
78.0430000000	47
78.0730000000	43
78.1030000000	36
78.1330000000	37
78.1630000000	39
78.1930000000	41
78.2230000000	53
78.2530000000	33
78.2830000000	39
78.3130000000	36
78.3430000000	36
78.3730000000	31
78.4030000000	45
78.4330000000	35
78.4630000000	39
78.4930000000	29
78.5230000000	47
78.5530000000	38
78.5830000000	40
78.6130000000	38
78.6430000000	36
78.6730000000	30
78.7030000000	37
78.7330000000	40
78.7630000000	39
78.7930000000	35
78.8230000000	36
78.8530000000	47
78.8830000000	46
78.9130000000	43
78.9430000000	41
78.9730000000	42
79.0030000000	35
79.0330000000	37
79.0630000000	41
79.0930000000	38
79.1230000000	41
79.1530000000	47
79.1830000000	32
79.2130000000	42
79.2430000000	45
79.2730000000	41
79.3030000000	43
79.3330000000	35
79.3630000000	48
79.3930000000	38
79.4230000000	33
79.4530000000	48
79.4830000000	45
79.5130000000	43
79.5430000000	40
79.5730000000	28
79.6030000000	44
79.6330000000	41
79.6630000000	40
79.6930000000	43
79.7230000000	51
79.7530000000	39
79.7830000000	30
79.8130000000	47
79.8430000000	42
79.8730000000	44
79.9030000000	43
79.9330000000	39
79.9630000000	45
79.9930000000	22
80.0230000000	36
80.0530000000	45
80.0830000000	47
80.1130000000	46
80.1430000000	42
80.1730000000	38
80.2030000000	36
80.2330000000	37
80.2630000000	38
80.2930000000	47
80.3230000000	36
80.3530000000	36
80.3830000000	38
80.4130000000	51
80.4430000000	44
80.4730000000	31
80.5030000000	35
80.5330000000	35
80.5630000000	44
80.5930000000	46
80.6230000000	55
80.6530000000	46
80.6830000000	46
80.7130000000	55
80.7430000000	49
80.7730000000	41
80.8030000000	29
80.8330000000	48
80.8630000000	30
80.8930000000	39
80.9230000000	48
80.9530000000	35
80.9830000000	33
81.0130000000	45
81.0430000000	40
81.0730000000	36
81.1030000000	44
81.1330000000	33
81.1630000000	52
81.1930000000	37
81.2230000000	49
81.2530000000	49
81.2830000000	45
81.3130000000	43
81.3430000000	45
81.3730000000	47
81.4030000000	50
81.4330000000	46
81.4630000000	51
81.4930000000	38
81.5230000000	42
81.5530000000	46
81.5830000000	52
81.6130000000	32
81.6430000000	43
81.6730000000	42
81.7030000000	46
81.7330000000	47
81.7630000000	39
81.7930000000	40
81.8230000000	36
81.8530000000	41
81.8830000000	33
81.9130000000	37
81.9430000000	33
81.9730000000	38
82.0030000000	41
82.0330000000	32
82.0630000000	33
82.0930000000	47
82.1230000000	34
82.1530000000	33
82.1830000000	52
82.2130000000	36
82.2430000000	53
82.2730000000	36
82.3030000000	31
82.3330000000	36
82.3630000000	37
82.3930000000	35
82.4230000000	35
82.4530000000	44
82.4830000000	39
82.5130000000	38
82.5430000000	33
82.5730000000	25
82.6030000000	34
82.6330000000	37
82.6630000000	46
82.6930000000	40
82.7230000000	38
82.7530000000	37
82.7830000000	43
82.8130000000	42
82.8430000000	50
82.8730000000	33
82.9030000000	32
82.9330000000	49
82.9630000000	43
82.9930000000	42
83.0230000000	33
83.0530000000	44
83.0830000000	38
83.1130000000	41
83.1430000000	53
83.1730000000	40
83.2030000000	51
83.2330000000	40
83.2630000000	45
83.2930000000	42
83.3230000000	35
83.3530000000	42
83.3830000000	41
83.4130000000	45
83.4430000000	38
83.4730000000	34
83.5030000000	44
83.5330000000	43
83.5630000000	40
83.5930000000	49
83.6230000000	54
83.6530000000	36
83.6830000000	41
83.7130000000	35
83.7430000000	42
83.7730000000	36
83.8030000000	48
83.8330000000	39
83.8630000000	40
83.8930000000	40
83.9230000000	47
83.9530000000	37
83.9830000000	41
84.0130000000	30
84.0430000000	34
84.0730000000	41
84.1030000000	53
84.1330000000	47
84.1630000000	42
84.1930000000	28
84.2230000000	37
84.2530000000	40
84.2830000000	41
84.3130000000	33
84.3430000000	39
84.3730000000	33
84.4030000000	34
84.4330000000	42
84.4630000000	42
84.4930000000	38
84.5230000000	39
84.5530000000	35
84.5830000000	41
84.6130000000	48
84.6430000000	35
84.6730000000	34
84.7030000000	51
84.7330000000	42
84.7630000000	35
84.7930000000	37
84.8230000000	37
84.8530000000	42
84.8830000000	35
84.9130000000	35
84.9430000000	35
84.9730000000	33
85.0030000000	38
85.0330000000	42
85.0630000000	53
85.0930000000	39
85.1230000000	37
85.1530000000	43
85.1830000000	26
85.2130000000	40
85.2430000000	38
85.2730000000	30
85.3030000000	39
85.3330000000	44
85.3630000000	38
85.3930000000	51
85.4230000000	30
85.4530000000	43
85.4830000000	36
85.5130000000	36
85.5430000000	34
85.5730000000	34
85.6030000000	37
85.6330000000	37
85.6630000000	42
85.6930000000	44
85.7230000000	32
85.7530000000	45
85.7830000000	35
85.8130000000	40
85.8430000000	41
85.8730000000	28
85.9030000000	36
85.9330000000	41
85.9630000000	40
85.9930000000	44
86.0230000000	39
86.0530000000	33
86.0830000000	32
86.1130000000	38
86.1430000000	51
86.1730000000	42
86.2030000000	44
86.2330000000	45
86.2630000000	35
86.2930000000	34
86.3230000000	36
86.3530000000	31
86.3830000000	37
86.4130000000	49
86.4430000000	29
86.4730000000	29
86.5030000000	43
86.5330000000	38
86.5630000000	38
86.5930000000	47
86.6230000000	40
86.6530000000	49
86.6830000000	45
86.7130000000	37
86.7430000000	31
86.7730000000	31
86.8030000000	37
86.8330000000	35
86.8630000000	37
86.8930000000	39
86.9230000000	34
86.9530000000	35
86.9830000000	36
87.0130000000	40
87.0430000000	45
87.0730000000	42
87.1030000000	42
87.1330000000	40
87.1630000000	33
87.1930000000	37
87.2230000000	37
87.2530000000	32
87.2830000000	38
87.3130000000	42
87.3430000000	35
87.3730000000	37
87.4030000000	43
87.4330000000	44
87.4630000000	31
87.4930000000	46
87.5230000000	32
87.5530000000	37
87.5830000000	37
87.6130000000	38
87.6430000000	44
87.6730000000	35
87.7030000000	37
87.7330000000	35
87.7630000000	41
87.7930000000	55
87.8230000000	42
87.8530000000	38
87.8830000000	36
87.9130000000	37
87.9430000000	42
87.9730000000	50
88.0030000000	44
88.0330000000	48
88.0630000000	42
88.0930000000	41
88.1230000000	40
88.1530000000	38
88.1830000000	35
88.2130000000	39
88.2430000000	42
88.2730000000	41
88.3030000000	39
88.3330000000	51
88.3630000000	40
88.3930000000	39
88.4230000000	40
88.4530000000	38
88.4830000000	32
88.5130000000	35
88.5430000000	41
88.5730000000	41
88.6030000000	64
88.6330000000	44
88.6630000000	44
88.6930000000	77
88.7230000000	66
88.7530000000	53
88.7830000000	61
88.8130000000	38
88.8430000000	58
88.8730000000	64
88.9030000000	55
88.9330000000	57
88.9630000000	56
88.9930000000	54
89.0230000000	53
89.0530000000	41
89.0830000000	42
89.1130000000	50
89.1430000000	44
89.1730000000	28
89.2030000000	41
89.2330000000	36
89.2630000000	39
89.2930000000	44
89.3230000000	31
89.3530000000	35
89.3830000000	41
89.4130000000	35
89.4430000000	49
89.4730000000	36
89.5030000000	41
89.5330000000	46
89.5630000000	35
89.5930000000	30
89.6230000000	40
89.6530000000	44
89.6830000000	37
89.7130000000	33
89.7430000000	42
89.7730000000	46
89.8030000000	42
89.8330000000	38
89.8630000000	37
89.8930000000	40
89.9230000000	26
89.9530000000	32
89.9830000000	45
90.0130000000	42
90.0430000000	48
90.0730000000	38
90.1030000000	28
90.1330000000	41
90.1630000000	38
90.1930000000	33
90.2230000000	38
90.2530000000	37
90.2830000000	32
90.3130000000	36
90.3430000000	32
90.3730000000	49
90.4030000000	45
90.4330000000	39
90.4630000000	44
90.4930000000	53
90.5230000000	31
90.5530000000	43
90.5830000000	39
90.6130000000	36
90.6430000000	43
90.6730000000	40
90.7030000000	41
90.7330000000	47
90.7630000000	40
90.7930000000	42
90.8230000000	35
90.8530000000	37
90.8830000000	36
90.9130000000	36
90.9430000000	45
90.9730000000	37
91.0030000000	39
91.0330000000	48
91.0630000000	42
91.0930000000	45
91.1230000000	41
91.1530000000	34
91.1830000000	43
91.2130000000	41
91.2430000000	54
91.2730000000	37
91.3030000000	31
91.3330000000	45
91.3630000000	45
91.3930000000	45
91.4230000000	45
91.4530000000	35
91.4830000000	37
91.5130000000	34
91.5430000000	39
91.5730000000	50
91.6030000000	35
91.6330000000	33
91.6630000000	41
91.6930000000	38
91.7230000000	43
91.7530000000	41
91.7830000000	33
91.8130000000	41
91.8430000000	54
91.8730000000	45
91.9030000000	52
91.9330000000	52
91.9630000000	52
91.9930000000	40
92.0230000000	37
92.0530000000	40
92.0830000000	35
92.1130000000	51
92.1430000000	41
92.1730000000	44
92.2030000000	36
92.2330000000	28
92.2630000000	43
92.2930000000	49
92.3230000000	41
92.3530000000	49
92.3830000000	49
92.4130000000	43
92.4430000000	35
92.4730000000	32
92.5030000000	39
92.5330000000	57
92.5630000000	45
92.5930000000	47
92.6230000000	42
92.6530000000	41
92.6830000000	41
92.7130000000	38
92.7430000000	36
92.7730000000	35
92.8030000000	41
92.8330000000	42
92.8630000000	42
92.8930000000	45
92.9230000000	54
92.9530000000	46
92.9830000000	37
93.0130000000	36
93.0430000000	38
93.0730000000	41
93.1030000000	33
93.1330000000	35
93.1630000000	51
93.1930000000	38
93.2230000000	30
93.2530000000	37
93.2830000000	36
93.3130000000	47
93.3430000000	36
93.3730000000	29
93.4030000000	44
93.4330000000	45
93.4630000000	33
93.4930000000	28
93.5230000000	40
93.5530000000	35
93.5830000000	44
93.6130000000	47
93.6430000000	51
93.6730000000	43
93.7030000000	33
93.7330000000	43
93.7630000000	40
93.7930000000	51
93.8230000000	40
93.8530000000	34
93.8830000000	45
93.9130000000	39
93.9430000000	36
93.9730000000	36
94.0030000000	42
94.0330000000	44
94.0630000000	36
94.0930000000	41
94.1230000000	42
94.1530000000	28
94.1830000000	47
94.2130000000	43
94.2430000000	46
94.2730000000	43
94.3030000000	37
94.3330000000	33
94.3630000000	44
94.3930000000	47
94.4230000000	38
94.4530000000	41
94.4830000000	55
94.5130000000	56
94.5430000000	49
94.5730000000	52
94.6030000000	70
94.6330000000	79
94.6630000000	70
94.6930000000	53
94.7230000000	44
94.7530000000	48
94.7830000000	50
94.8130000000	52
94.8430000000	48
94.8730000000	51
94.9030000000	55
94.9330000000	45
94.9630000000	46
94.9930000000	51
95.0230000000	42
95.0530000000	49
95.0830000000	63
95.1130000000	40
95.1430000000	39
95.1730000000	37
95.2030000000	48
95.2330000000	34
95.2630000000	35
95.2930000000	47
95.3230000000	40
95.3530000000	34
95.3830000000	36
95.4130000000	35
95.4430000000	44
95.4730000000	54
95.5030000000	47
95.5330000000	31
95.5630000000	31
95.5930000000	43
95.6230000000	39
95.6530000000	34
95.6830000000	40
95.7130000000	47
95.7430000000	48
95.7730000000	39
95.8030000000	32
95.8330000000	34
95.8630000000	35
95.8930000000	38
95.9230000000	44
95.9530000000	44
95.9830000000	42
96.0130000000	33
96.0430000000	36
96.0730000000	44
96.1030000000	45
96.1330000000	48
96.1630000000	41
96.1930000000	28
96.2230000000	47
96.2530000000	55
96.2830000000	34
96.3130000000	38
96.3430000000	48
96.3730000000	45
96.4030000000	40
96.4330000000	39
96.4630000000	47
96.4930000000	37
96.5230000000	38
96.5530000000	33
96.5830000000	47
96.6130000000	41
96.6430000000	33
96.6730000000	38
96.7030000000	35
96.7330000000	36
96.7630000000	38
96.7930000000	39
96.8230000000	45
96.8530000000	42
96.8830000000	37
96.9130000000	44
96.9430000000	47
96.9730000000	45
97.0030000000	45
97.0330000000	38
97.0630000000	40
97.0930000000	47
97.1230000000	54
97.1530000000	55
97.1830000000	41
97.2130000000	41
97.2430000000	34
97.2730000000	36
97.3030000000	45
97.3330000000	37
97.3630000000	35
97.3930000000	47
97.4230000000	47
97.4530000000	37
97.4830000000	34
97.5130000000	39
97.5430000000	41
97.5730000000	39
97.6030000000	38
97.6330000000	38
97.6630000000	30
97.6930000000	57
97.7230000000	40
97.7530000000	32
97.7830000000	33
97.8130000000	34
97.8430000000	38
97.8730000000	39
97.9030000000	31
97.9330000000	38
97.9630000000	39
97.9930000000	35
98.0230000000	50
98.0530000000	39
98.0830000000	41
98.1130000000	39
98.1430000000	31
98.1730000000	41
98.2030000000	36
98.2330000000	56
98.2630000000	57
98.2930000000	38
98.3230000000	35
98.3530000000	41
98.3830000000	43
98.4130000000	42
98.4430000000	38
98.4730000000	34
98.5030000000	38
98.5330000000	33
98.5630000000	35
98.5930000000	42
98.6230000000	38
98.6530000000	39
98.6830000000	34
98.7130000000	33
98.7430000000	40
98.7730000000	36
98.8030000000	33
98.8330000000	37
98.8630000000	41
98.8930000000	38
98.9230000000	31
98.9530000000	38
98.9830000000	42
99.0130000000	38
99.0430000000	29
99.0730000000	40
99.1030000000	35
99.1330000000	44
99.1630000000	35
99.1930000000	27
99.2230000000	43
99.2530000000	39
99.2830000000	29
99.3130000000	33
99.3430000000	37
99.3730000000	39
99.4030000000	40
99.4330000000	41
99.4630000000	42
99.4930000000	34
99.5230000000	38
99.5530000000	26
99.5830000000	42
99.6130000000	28
99.6430000000	37
99.6730000000	33
99.7030000000	29
99.7330000000	36
99.7630000000	43
99.7930000000	30
99.8230000000	31
99.8530000000	35
99.8830000000	47
99.9130000000	46
99.9430000000	26
99.9730000000	33
100.0030000000	33
100.0330000000	33
100.0630000000	38
100.0930000000	45
100.1230000000	41
100.1530000000	38
100.1830000000	32
100.2130000000	24
100.2430000000	34
100.2730000000	40
100.3030000000	41
100.3330000000	27
100.3630000000	29
100.3930000000	40
100.4230000000	39
100.4530000000	38
100.4830000000	33
100.5130000000	29
100.5430000000	25
100.5730000000	34
100.6030000000	43
100.6330000000	43
100.6630000000	37
100.6930000000	37
100.7230000000	48
100.7530000000	49
100.7830000000	46
100.8130000000	35
100.8430000000	38
100.8730000000	41
100.9030000000	49
100.9330000000	40
100.9630000000	28
100.9930000000	31
101.0230000000	34
101.0530000000	30
101.0830000000	32
101.1130000000	29
101.1430000000	39
101.1730000000	36
101.2030000000	43
101.2330000000	38
101.2630000000	40
101.2930000000	43
101.3230000000	37
101.3530000000	23
101.3830000000	30
101.4130000000	34
101.4430000000	33
101.4730000000	36
101.5030000000	38
101.5330000000	41
101.5630000000	37
101.5930000000	33
101.6230000000	35
101.6530000000	38
101.6830000000	34
101.7130000000	27
101.7430000000	35
101.7730000000	36
101.8030000000	36
101.8330000000	33
101.8630000000	43
101.8930000000	36
101.9230000000	38
101.9530000000	41
101.9830000000	35
102.0130000000	32
102.0430000000	33
102.0730000000	38
102.1030000000	30
102.1330000000	34
102.1630000000	34
102.1930000000	44
102.2230000000	32
102.2530000000	39
102.2830000000	38
102.3130000000	36
102.3430000000	34
102.3730000000	38
102.4030000000	32
102.4330000000	43
102.4630000000	45
102.4930000000	38
102.5230000000	44
102.5530000000	41
102.5830000000	39
102.6130000000	39
102.6430000000	48
102.6730000000	38
102.7030000000	40
102.7330000000	34
102.7630000000	34
102.7930000000	49
102.8230000000	48
102.8530000000	42
102.8830000000	44
102.9130000000	35
102.9430000000	44
102.9730000000	45
103.0030000000	45
103.0330000000	55
103.0630000000	52
103.0930000000	57
103.1230000000	64
103.1530000000	53
103.1830000000	53
103.2130000000	54
103.2430000000	39
103.2730000000	34
103.3030000000	46
103.3330000000	50
103.3630000000	39
103.3930000000	47
103.4230000000	33
103.4530000000	44
103.4830000000	49
103.5130000000	36
103.5430000000	36
103.5730000000	38
103.6030000000	45
103.6330000000	49
103.6630000000	48
103.6930000000	32
103.7230000000	38
103.7530000000	40
103.7830000000	31
103.8130000000	38
103.8430000000	39
103.8730000000	42
103.9030000000	48
103.9330000000	37
103.9630000000	41
103.9930000000	40
104.0230000000	43
104.0530000000	50
104.0830000000	41
104.1130000000	45
104.1430000000	44
104.1730000000	46
104.2030000000	44
104.2330000000	46
104.2630000000	32
104.2930000000	52
104.3230000000	47
104.3530000000	55
104.3830000000	28
104.4130000000	33
104.4430000000	39
104.4730000000	43
104.5030000000	41
104.5330000000	38
104.5630000000	45
104.5930000000	35
104.6230000000	35
104.6530000000	31
104.6830000000	35
104.7130000000	41
104.7430000000	39
104.7730000000	38
104.8030000000	35
104.8330000000	43
104.8630000000	35
104.8930000000	35
104.9230000000	42
104.9530000000	30
104.9830000000	48
105.0130000000	43
105.0430000000	34
105.0730000000	34
105.1030000000	31
105.1330000000	31
105.1630000000	41
105.1930000000	50
105.2230000000	44
105.2530000000	45
105.2830000000	32
105.3130000000	30
105.3430000000	40
105.3730000000	29
105.4030000000	39
105.4330000000	43
105.4630000000	26
105.4930000000	31
105.5230000000	38
105.5530000000	34
105.5830000000	39
105.6130000000	35
105.6430000000	32
105.6730000000	41
105.7030000000	27
105.7330000000	35
105.7630000000	43
105.7930000000	36
105.8230000000	35
105.8530000000	37
105.8830000000	28
105.9130000000	39
105.9430000000	51
105.9730000000	29
106.0030000000	33
106.0330000000	33
106.0630000000	41
106.0930000000	37
106.1230000000	41
106.1530000000	37
106.1830000000	36
106.2130000000	40
106.2430000000	31
106.2730000000	44
106.3030000000	25
106.3330000000	40
106.3630000000	42
106.3930000000	31
106.4230000000	34
106.4530000000	43
106.4830000000	42
106.5130000000	35
106.5430000000	29
106.5730000000	27
106.6030000000	43
106.6330000000	31
106.6630000000	37
106.6930000000	32
106.7230000000	30
106.7530000000	32
106.7830000000	30
106.8130000000	36
106.8430000000	39
106.8730000000	55
106.9030000000	33
106.9330000000	36
106.9630000000	38
106.9930000000	27
107.0230000000	32
107.0530000000	27
107.0830000000	42
107.1130000000	30
107.1430000000	31
107.1730000000	29
107.2030000000	38
107.2330000000	37
107.2630000000	41
107.2930000000	32
107.3230000000	36
107.3530000000	36
107.3830000000	34
107.4130000000	36
107.4430000000	34
107.4730000000	29
107.5030000000	37
107.5330000000	33
107.5630000000	35
107.5930000000	38
107.6230000000	36
107.6530000000	36
107.6830000000	32
107.7130000000	33
107.7430000000	35
107.7730000000	37
107.8030000000	41
107.8330000000	36
107.8630000000	29
107.8930000000	35
107.9230000000	36
107.9530000000	28
107.9830000000	26
108.0130000000	29
108.0430000000	45
108.0730000000	29
108.1030000000	40
108.1330000000	43
108.1630000000	31
108.1930000000	40
108.2230000000	39
108.2530000000	36
108.2830000000	42
108.3130000000	31
108.3430000000	48
108.3730000000	33
108.4030000000	33
108.4330000000	42
108.4630000000	33
108.4930000000	40
108.5230000000	45
108.5530000000	32
108.5830000000	37
108.6130000000	31
108.6430000000	44
108.6730000000	39
108.7030000000	30
108.7330000000	34
108.7630000000	31
108.7930000000	33
108.8230000000	39
108.8530000000	35
108.8830000000	48
108.9130000000	36
108.9430000000	41
108.9730000000	36
109.0030000000	34
109.0330000000	34
109.0630000000	38
109.0930000000	36
109.1230000000	39
109.1530000000	35
109.1830000000	44
109.2130000000	33
109.2430000000	48
109.2730000000	48
109.3030000000	36
109.3330000000	35
109.3630000000	28
109.3930000000	41
109.4230000000	27
109.4530000000	33
109.4830000000	32
109.5130000000	41
109.5430000000	44
109.5730000000	36
109.6030000000	41
109.6330000000	39
109.6630000000	34
109.6930000000	40
109.7230000000	40
109.7530000000	40
109.7830000000	41
109.8130000000	45
109.8430000000	39
109.8730000000	32
109.9030000000	50
109.9330000000	28
109.9630000000	33
109.9930000000	45
110.0230000000	39
110.0530000000	40
110.0830000000	45
110.1130000000	35
110.1430000000	39
110.1730000000	40
110.2030000000	36
110.2330000000	42
110.2630000000	49
110.2930000000	34
110.3230000000	32
110.3530000000	47
110.3830000000	41
110.4130000000	29
110.4430000000	28
110.4730000000	37
110.5030000000	31
110.5330000000	43
110.5630000000	32
110.5930000000	37
110.6230000000	47
110.6530000000	36
110.6830000000	47
110.7130000000	38
110.7430000000	31
110.7730000000	39
110.8030000000	39
110.8330000000	32
110.8630000000	37
110.8930000000	37
110.9230000000	35
110.9530000000	35
110.9830000000	41
111.0130000000	33
111.0430000000	28
111.0730000000	29
111.1030000000	27
111.1330000000	34
111.1630000000	38
111.1930000000	43
111.2230000000	46
111.2530000000	37
111.2830000000	46
111.3130000000	40
111.3430000000	28
111.3730000000	40
111.4030000000	38
111.4330000000	40
111.4630000000	47
111.4930000000	41
111.5230000000	38
111.5530000000	38
111.5830000000	34
111.6130000000	37
111.6430000000	30
111.6730000000	36
111.7030000000	42
111.7330000000	39
111.7630000000	42
111.7930000000	49
111.8230000000	39
111.8530000000	38
111.8830000000	28
111.9130000000	28
111.9430000000	42
111.9730000000	34
112.0030000000	36
112.0330000000	40
112.0630000000	37
112.0930000000	41
112.1230000000	43
112.1530000000	32
112.1830000000	48
112.2130000000	47
112.2430000000	42
112.2730000000	40
112.3030000000	50
112.3330000000	43
112.3630000000	35
112.3930000000	44
112.4230000000	45
112.4530000000	34
112.4830000000	38
112.5130000000	30
112.5430000000	47
112.5730000000	40
112.6030000000	36
112.6330000000	33
112.6630000000	29
112.6930000000	41
112.7230000000	36
112.7530000000	30
112.7830000000	45
112.8130000000	52
112.8430000000	42
112.8730000000	29
112.9030000000	34
112.9330000000	36
112.9630000000	29
112.9930000000	28
113.0230000000	28
113.0530000000	38
113.0830000000	45
113.1130000000	28
113.1430000000	37
113.1730000000	39
113.2030000000	43
113.2330000000	36
113.2630000000	34
113.2930000000	45
113.3230000000	34
113.3530000000	41
113.3830000000	40
113.4130000000	34
113.4430000000	33
113.4730000000	29
113.5030000000	39
113.5330000000	35
113.5630000000	34
113.5930000000	37
113.6230000000	33
113.6530000000	38
113.6830000000	48
113.7130000000	32
113.7430000000	47
113.7730000000	42
113.8030000000	47
113.8330000000	54
113.8630000000	44
113.8930000000	35
113.9230000000	41
113.9530000000	32
113.9830000000	36
114.0130000000	35
114.0430000000	45
114.0730000000	34
114.1030000000	44
114.1330000000	50
114.1630000000	36
114.1930000000	35
114.2230000000	39
114.2530000000	34
114.2830000000	38
114.3130000000	52
114.3430000000	34
114.3730000000	38
114.4030000000	44
114.4330000000	37
114.4630000000	1
114.4930000000	1
114.5230000000	1
114.5530000000	1
114.5830000000	1
