0.3130000000	1
0.3430000000	1
0.3730000000	1
0.4030000000	1
0.4330000000	1
0.4630000000	1
0.4930000000	1
0.5230000000	1
0.5530000000	1
0.5830000000	1
0.6130000000	2
0.6430000000	1
0.6730000000	2
0.7030000000	1
0.7330000000	1
0.7630000000	1
0.7930000000	1
0.8230000000	1
0.8530000000	1
0.8830000000	1
0.9130000000	1
0.9430000000	2
0.9730000000	1
1.0030000000	1
1.0330000000	1
1.0630000000	1
1.0930000000	1
1.1230000000	1
1.1530000000	1
1.1830000000	1
1.2130000000	1
1.2430000000	2
1.2730000000	1
1.3030000000	1
1.3330000000	1
1.3630000000	1
1.3930000000	1
1.4230000000	2
1.4530000000	1
1.4830000000	1
1.5130000000	1
1.5430000000	1
1.5730000000	1
1.6030000000	1
1.6330000000	1
1.6630000000	1
1.6930000000	1
1.7230000000	1
1.7530000000	1
1.7830000000	1
1.8130000000	2
1.8430000000	1
1.8730000000	1
1.9030000000	1
1.9330000000	1
1.9630000000	2
1.9930000000	2
2.0230000000	1
2.0530000000	1
2.0830000000	1
2.1130000000	2
2.1430000000	2
2.1730000000	1
2.2030000000	2
2.2330000000	2
2.2630000000	1
2.2930000000	2
2.3230000000	2
2.3530000000	2
2.3830000000	2
2.4130000000	2
2.4430000000	2
2.4730000000	1
2.5030000000	2
2.5330000000	2
2.5630000000	1
2.5930000000	1
2.6230000000	1
2.6530000000	1
2.6830000000	2
2.7130000000	1
2.7430000000	2
2.7730000000	3
2.8030000000	2
2.8330000000	1
2.8630000000	1
2.8930000000	1
2.9230000000	1
2.9530000000	2
2.9830000000	4
3.0130000000	0
3.0430000000	1
3.0730000000	1
3.1030000000	1
3.1330000000	2
3.1630000000	1
3.1930000000	2
3.2230000000	2
3.2530000000	1
3.2830000000	2
3.3130000000	1
3.3430000000	2
3.3730000000	2
3.4030000000	4
3.4330000000	1
3.4630000000	3
3.4930000000	3
3.5230000000	3
3.5530000000	2
3.5830000000	2
3.6130000000	4
3.6430000000	2
3.6730000000	2
3.7030000000	2
3.7330000000	1
3.7630000000	2
3.7930000000	1
3.8230000000	2
3.8530000000	3
3.8830000000	1
3.9130000000	2
3.9430000000	1
3.9730000000	1
4.0030000000	1
4.0330000000	2
4.0630000000	3
4.0930000000	2
4.1230000000	3
4.1530000000	2
4.1830000000	4
4.2130000000	3
4.2430000000	3
4.2730000000	1
4.3030000000	2
4.3330000000	5
4.3630000000	4
4.3930000000	2
4.4230000000	3
4.4530000000	5
4.4830000000	9
4.5130000000	24
4.5430000000	26
4.5730000000	52
4.6030000000	57
4.6330000000	88
4.6630000000	96
4.6930000000	124
4.7230000000	154
4.7530000000	149
4.7830000000	105
4.8130000000	130
4.8430000000	126
4.8730000000	152
4.9030000000	154
4.9330000000	130
4.9630000000	133
4.9930000000	140
5.0230000000	129
5.0530000000	142
5.0830000000	141
5.1130000000	133
5.1430000000	122
5.1730000000	126
5.2030000000	152
5.2330000000	147
5.2630000000	122
5.2930000000	152
5.3230000000	132
5.3530000000	138
5.3830000000	157
5.4130000000	155
5.4430000000	150
5.4730000000	153
5.5030000000	146
5.5330000000	144
5.5630000000	147
5.5930000000	151
5.6230000000	148
5.6530000000	143
5.6830000000	153
5.7130000000	132
5.7430000000	152
5.7730000000	153
5.8030000000	140
5.8330000000	143
5.8630000000	141
5.8930000000	144
5.9230000000	139
5.9530000000	148
5.9830000000	145
6.0130000000	125
6.0430000000	155
6.0730000000	138
6.1030000000	138
6.1330000000	155
6.1630000000	142
6.1930000000	167
6.2230000000	139
6.2530000000	155
6.2830000000	144
6.3130000000	138
6.3430000000	152
6.3730000000	141
6.4030000000	145
6.4330000000	150
6.4630000000	162
6.4930000000	157
6.5230000000	141
6.5530000000	138
6.5830000000	138
6.6130000000	136
6.6430000000	153
6.6730000000	161
6.7030000000	151
6.7330000000	150
6.7630000000	176
6.7930000000	136
6.8230000000	151
6.8530000000	151
6.8830000000	144
6.9130000000	159
6.9430000000	134
6.9730000000	143
7.0030000000	153
7.0330000000	137
7.0630000000	150
7.0930000000	152
7.1230000000	143
7.1530000000	148
7.1830000000	146
7.2130000000	139
7.2430000000	137
7.2730000000	136
7.3030000000	146
7.3330000000	143
7.3630000000	147
7.3930000000	142
7.4230000000	153
7.4530000000	151
7.4830000000	154
7.5130000000	147
7.5430000000	138
7.5730000000	138
7.6030000000	141
7.6330000000	151
7.6630000000	147
7.6930000000	138
7.7230000000	153
7.7530000000	159
7.7830000000	137
7.8130000000	135
7.8430000000	140
7.8730000000	137
7.9030000000	148
7.9330000000	151
7.9630000000	153
7.9930000000	156
8.0230000000	142
8.0530000000	153
8.0830000000	146
8.1130000000	133
8.1430000000	132
8.1730000000	133
8.2030000000	151
8.2330000000	142
8.2630000000	130
8.2930000000	138
8.3230000000	154
8.3530000000	147
8.3830000000	146
8.4130000000	148
8.4430000000	137
8.4730000000	149
8.5030000000	148
8.5330000000	144
8.5630000000	144
8.5930000000	163
8.6230000000	146
8.6530000000	140
8.6830000000	138
8.7130000000	138
8.7430000000	132
8.7730000000	151
8.8030000000	154
8.8330000000	150
8.8630000000	147
8.8930000000	136
8.9230000000	159
8.9530000000	157
8.9830000000	158
9.0130000000	152
9.0430000000	142
9.0730000000	139
9.1030000000	154
9.1330000000	133
9.1630000000	126
9.1930000000	149
9.2230000000	150
9.2530000000	140
9.2830000000	142
9.3130000000	143
9.3430000000	137
9.3730000000	161
9.4030000000	144
9.4330000000	137
9.4630000000	152
9.4930000000	143
9.5230000000	139
9.5530000000	175
9.5830000000	150
9.6130000000	147
9.6430000000	154
9.6730000000	158
9.7030000000	155
9.7330000000	139
9.7630000000	147
9.7930000000	140
9.8230000000	147
9.8530000000	142
9.8830000000	150
9.9130000000	164
9.9430000000	163
9.9730000000	151
10.0030000000	141
10.0330000000	135
10.0630000000	146
10.0930000000	143
10.1230000000	153
10.1530000000	138
10.1830000000	156
10.2130000000	133
10.2430000000	145
10.2730000000	139
10.3030000000	150
10.3330000000	170
10.3630000000	161
10.3930000000	164
10.4230000000	138
10.4530000000	142
10.4830000000	151
10.5130000000	143
10.5430000000	153
10.5730000000	139
10.6030000000	125
10.6330000000	144
10.6630000000	142
10.6930000000	141
10.7230000000	166
10.7530000000	137
10.7830000000	158
10.8130000000	152
10.8430000000	153
10.8730000000	158
10.9030000000	149
10.9330000000	138
10.9630000000	176
10.9930000000	145
11.0230000000	128
11.0530000000	132
11.0830000000	154
11.1130000000	141
11.1430000000	144
11.1730000000	159
11.2030000000	130
11.2330000000	140
11.2630000000	138
11.2930000000	132
11.3230000000	143
11.3530000000	142
11.3830000000	155
11.4130000000	148
11.4430000000	128
11.4730000000	177
11.5030000000	165
11.5330000000	149
11.5630000000	141
11.5930000000	140
11.6230000000	149
11.6530000000	156
11.6830000000	168
11.7130000000	121
11.7430000000	145
11.7730000000	127
11.8030000000	151
11.8330000000	140
11.8630000000	117
11.8930000000	143
11.9230000000	154
11.9530000000	134
11.9830000000	149
12.0130000000	148
12.0430000000	147
12.0730000000	153
12.1030000000	166
12.1330000000	145
12.1630000000	147
12.1930000000	149
12.2230000000	147
12.2530000000	178
12.2830000000	182
12.3130000000	159
12.3430000000	149
12.3730000000	152
12.4030000000	165
12.4330000000	145
12.4630000000	148
12.4930000000	137
12.5230000000	146
12.5530000000	148
12.5830000000	136
12.6130000000	145
12.6430000000	154
12.6730000000	142
12.7030000000	149
12.7330000000	147
12.7630000000	152
12.7930000000	157
12.8230000000	162
12.8530000000	159
12.8830000000	161
12.9130000000	151
12.9430000000	122
12.9730000000	149
13.0030000000	157
13.0330000000	134
13.0630000000	142
13.0930000000	142
13.1230000000	138
13.1530000000	145
13.1830000000	149
13.2130000000	169
13.2430000000	140
13.2730000000	167
13.3030000000	131
13.3330000000	138
13.3630000000	142
13.3930000000	152
13.4230000000	138
13.4530000000	146
13.4830000000	146
13.5130000000	157
13.5430000000	163
13.5730000000	154
13.6030000000	154
13.6330000000	164
13.6630000000	156
13.6930000000	145
13.7230000000	152
13.7530000000	145
13.7830000000	156
13.8130000000	133
13.8430000000	147
13.8730000000	134
13.9030000000	150
13.9330000000	140
13.9630000000	131
13.9930000000	167
14.0230000000	143
14.0530000000	160
14.0830000000	142
14.1130000000	130
14.1430000000	129
14.1730000000	145
14.2030000000	145
14.2330000000	137
14.2630000000	159
14.2930000000	144
14.3230000000	137
14.3530000000	132
14.3830000000	141
14.4130000000	165
14.4430000000	131
14.4730000000	150
14.5030000000	143
14.5330000000	146
14.5630000000	145
14.5930000000	150
14.6230000000	138
14.6530000000	163
14.6830000000	155
14.7130000000	161
14.7430000000	156
14.7730000000	147
14.8030000000	157
14.8330000000	159
14.8630000000	154
14.8930000000	148
14.9230000000	167
14.9530000000	158
14.9830000000	166
15.0130000000	145
15.0430000000	163
15.0730000000	152
15.1030000000	143
15.1330000000	154
15.1630000000	159
15.1930000000	143
15.2230000000	142
15.2530000000	150
15.2830000000	169
15.3130000000	153
15.3430000000	165
15.3730000000	162
15.4030000000	143
15.4330000000	147
15.4630000000	167
15.4930000000	141
15.5230000000	134
15.5530000000	151
15.5830000000	148
15.6130000000	135
15.6430000000	139
15.6730000000	148
15.7030000000	147
15.7330000000	151
15.7630000000	131
15.7930000000	128
15.8230000000	145
15.8530000000	151
15.8830000000	137
15.9130000000	128
15.9430000000	152
15.9730000000	156
16.0030000000	133
16.0330000000	132
16.0630000000	156
16.0930000000	143
16.1230000000	156
16.1530000000	145
16.1830000000	128
16.2130000000	158
16.2430000000	142
16.2730000000	149
16.3030000000	158
16.3330000000	144
16.3630000000	136
16.3930000000	159
16.4230000000	148
16.4530000000	133
16.4830000000	148
16.5130000000	146
16.5430000000	134
16.5730000000	137
16.6030000000	160
16.6330000000	137
16.6630000000	160
16.6930000000	123
16.7230000000	161
16.7530000000	148
16.7830000000	142
16.8130000000	148
16.8430000000	163
16.8730000000	154
16.9030000000	127
16.9330000000	144
16.9630000000	134
16.9930000000	134
17.0230000000	145
17.0530000000	143
17.0830000000	149
17.1130000000	128
17.1430000000	148
17.1730000000	142
17.2030000000	143
17.2330000000	162
17.2630000000	143
17.2930000000	150
17.3230000000	157
17.3530000000	161
17.3830000000	143
17.4130000000	129
17.4430000000	132
17.4730000000	159
17.5030000000	169
17.5330000000	171
17.5630000000	152
17.5930000000	145
17.6230000000	142
17.6530000000	151
17.6830000000	155
17.7130000000	156
17.7430000000	139
17.7730000000	139
17.8030000000	142
17.8330000000	135
17.8630000000	144
17.8930000000	146
17.9230000000	154
17.9530000000	141
17.9830000000	135
18.0130000000	157
18.0430000000	151
18.0730000000	139
18.1030000000	155
18.1330000000	132
18.1630000000	168
18.1930000000	145
18.2230000000	128
18.2530000000	154
18.2830000000	155
18.3130000000	146
18.3430000000	145
18.3730000000	152
18.4030000000	154
18.4330000000	140
18.4630000000	133
18.4930000000	139
18.5230000000	153
18.5530000000	134
18.5830000000	149
18.6130000000	127
18.6430000000	157
18.6730000000	160
18.7030000000	148
18.7330000000	137
18.7630000000	143
18.7930000000	128
18.8230000000	161
18.8530000000	157
18.8830000000	131
18.9130000000	146
18.9430000000	148
18.9730000000	150
19.0030000000	149
19.0330000000	155
19.0630000000	137
19.0930000000	152
19.1230000000	145
19.1530000000	151
19.1830000000	153
19.2130000000	128
19.2430000000	162
19.2730000000	157
19.3030000000	151
19.3330000000	165
19.3630000000	152
19.3930000000	195
19.4230000000	182
19.4530000000	236
19.4830000000	271
19.5130000000	305
19.5430000000	357
19.5730000000	336
19.6030000000	350
19.6330000000	270
19.6630000000	217
19.6930000000	186
19.7230000000	152
19.7530000000	183
19.7830000000	189
19.8130000000	163
19.8430000000	144
19.8730000000	151
19.9030000000	174
19.9330000000	146
19.9630000000	157
19.9930000000	147
20.0230000000	138
20.0530000000	145
20.0830000000	147
20.1130000000	143
20.1430000000	145
20.1730000000	145
20.2030000000	144
20.2330000000	162
20.2630000000	146
20.2930000000	141
20.3230000000	140
20.3530000000	162
20.3830000000	140
20.4130000000	156
20.4430000000	155
20.4730000000	150
20.5030000000	163
20.5330000000	150
20.5630000000	169
20.5930000000	141
20.6230000000	149
20.6530000000	155
20.6830000000	153
20.7130000000	158
20.7430000000	166
20.7730000000	149
20.8030000000	140
20.8330000000	153
20.8630000000	151
20.8930000000	172
20.9230000000	150
20.9530000000	134
20.9830000000	159
21.0130000000	157
21.0430000000	135
21.0730000000	161
21.1030000000	145
21.1330000000	172
21.1630000000	149
21.1930000000	159
21.2230000000	145
21.2530000000	140
21.2830000000	144
21.3130000000	177
21.3430000000	132
21.3730000000	134
21.4030000000	149
21.4330000000	148
21.4630000000	158
21.4930000000	149
21.5230000000	159
21.5530000000	163
21.5830000000	148
21.6130000000	169
21.6430000000	165
21.6730000000	156
21.7030000000	148
21.7330000000	151
21.7630000000	163
21.7930000000	159
21.8230000000	169
21.8530000000	150
21.8830000000	137
21.9130000000	146
21.9430000000	152
21.9730000000	151
22.0030000000	164
22.0330000000	160
22.0630000000	167
22.0930000000	175
22.1230000000	151
22.1530000000	174
22.1830000000	183
22.2130000000	157
22.2430000000	146
22.2730000000	169
22.3030000000	174
22.3330000000	166
22.3630000000	171
22.3930000000	175
22.4230000000	179
22.4530000000	171
22.4830000000	171
22.5130000000	181
22.5430000000	183
22.5730000000	177
22.6030000000	187
22.6330000000	206
22.6630000000	216
22.6930000000	234
22.7230000000	248
22.7530000000	232
22.7830000000	216
22.8130000000	188
22.8430000000	204
22.8730000000	194
22.9030000000	169
22.9330000000	153
22.9630000000	184
22.9930000000	181
23.0230000000	159
23.0530000000	173
23.0830000000	151
23.1130000000	164
23.1430000000	155
23.1730000000	167
23.2030000000	183
23.2330000000	176
23.2630000000	167
23.2930000000	170
23.3230000000	180
23.3530000000	170
23.3830000000	168
23.4130000000	163
23.4430000000	156
23.4730000000	153
23.5030000000	154
23.5330000000	164
23.5630000000	154
23.5930000000	176
23.6230000000	207
23.6530000000	176
23.6830000000	157
23.7130000000	155
23.7430000000	154
23.7730000000	148
23.8030000000	167
23.8330000000	168
23.8630000000	184
23.8930000000	174
23.9230000000	171
23.9530000000	166
23.9830000000	144
24.0130000000	142
24.0430000000	158
24.0730000000	155
24.1030000000	148
24.1330000000	187
24.1630000000	172
24.1930000000	170
24.2230000000	155
24.2530000000	163
24.2830000000	171
24.3130000000	161
24.3430000000	164
24.3730000000	174
24.4030000000	177
24.4330000000	155
24.4630000000	179
24.4930000000	159
24.5230000000	170
24.5530000000	185
24.5830000000	176
24.6130000000	186
24.6430000000	152
24.6730000000	154
24.7030000000	157
24.7330000000	150
24.7630000000	172
24.7930000000	161
24.8230000000	164
24.8530000000	193
24.8830000000	175
24.9130000000	183
24.9430000000	178
24.9730000000	163
25.0030000000	165
25.0330000000	168
25.0630000000	180
25.0930000000	186
25.1230000000	138
25.1530000000	181
25.1830000000	173
25.2130000000	189
25.2430000000	176
25.2730000000	154
25.3030000000	165
25.3330000000	183
25.3630000000	162
25.3930000000	163
25.4230000000	158
25.4530000000	183
25.4830000000	178
25.5130000000	146
25.5430000000	158
25.5730000000	167
25.6030000000	160
25.6330000000	170
25.6630000000	175
25.6930000000	166
25.7230000000	159
25.7530000000	170
25.7830000000	143
25.8130000000	166
25.8430000000	170
25.8730000000	160
25.9030000000	165
25.9330000000	169
25.9630000000	182
25.9930000000	174
26.0230000000	158
26.0530000000	168
26.0830000000	171
26.1130000000	188
26.1430000000	186
26.1730000000	191
26.2030000000	221
26.2330000000	261
26.2630000000	333
26.2930000000	406
26.3230000000	572
26.3530000000	806
26.3830000000	911
26.4130000000	1012
26.4430000000	947
26.4730000000	695
26.5030000000	523
26.5330000000	386
26.5630000000	288
26.5930000000	245
26.6230000000	240
26.6530000000	230
26.6830000000	213
26.7130000000	196
26.7430000000	189
26.7730000000	179
26.8030000000	166
26.8330000000	162
26.8630000000	167
26.8930000000	153
26.9230000000	159
26.9530000000	167
26.9830000000	146
27.0130000000	154
27.0430000000	147
27.0730000000	161
27.1030000000	174
27.1330000000	128
27.1630000000	143
27.1930000000	181
27.2230000000	153
27.2530000000	156
27.2830000000	151
27.3130000000	138
27.3430000000	159
27.3730000000	142
27.4030000000	152
27.4330000000	147
27.4630000000	152
27.4930000000	142
27.5230000000	160
27.5530000000	133
27.5830000000	152
27.6130000000	166
27.6430000000	130
27.6730000000	150
27.7030000000	153
27.7330000000	145
27.7630000000	149
27.7930000000	146
27.8230000000	134
27.8530000000	151
27.8830000000	148
27.9130000000	138
27.9430000000	155
27.9730000000	150
28.0030000000	159
28.0330000000	165
28.0630000000	138
28.0930000000	165
28.1230000000	168
28.1530000000	173
28.1830000000	153
28.2130000000	154
28.2430000000	164
28.2730000000	137
28.3030000000	153
28.3330000000	151
28.3630000000	141
28.3930000000	151
28.4230000000	157
28.4530000000	157
28.4830000000	149
28.5130000000	154
28.5430000000	132
28.5730000000	183
28.6030000000	151
28.6330000000	144
28.6630000000	148
28.6930000000	167
28.7230000000	161
28.7530000000	162
28.7830000000	156
28.8130000000	169
28.8430000000	179
28.8730000000	143
28.9030000000	156
28.9330000000	166
28.9630000000	163
28.9930000000	162
29.0230000000	145
29.0530000000	167
29.0830000000	147
29.1130000000	144
29.1430000000	139
29.1730000000	144
29.2030000000	156
29.2330000000	128
29.2630000000	140
29.2930000000	153
29.3230000000	112
29.3530000000	139
29.3830000000	135
29.4130000000	151
29.4430000000	131
29.4730000000	149
29.5030000000	134
29.5330000000	114
29.5630000000	138
29.5930000000	124
29.6230000000	143
29.6530000000	142
29.6830000000	137
29.7130000000	125
29.7430000000	148
29.7730000000	132
29.8030000000	156
29.8330000000	126
29.8630000000	154
29.8930000000	145
29.9230000000	132
29.9530000000	141
29.9830000000	132
30.0130000000	146
30.0430000000	168
30.0730000000	149
30.1030000000	175
30.1330000000	200
30.1630000000	269
30.1930000000	352
30.2230000000	480
30.2530000000	709
30.2830000000	1026
30.3130000000	1573
30.3430000000	2308
30.3730000000	2808
30.4030000000	2978
30.4330000000	2652
30.4630000000	1900
30.4930000000	1282
30.5230000000	805
30.5530000000	464
30.5830000000	310
30.6130000000	251
30.6430000000	220
30.6730000000	174
30.7030000000	178
30.7330000000	154
30.7630000000	141
30.7930000000	140
30.8230000000	163
30.8530000000	131
30.8830000000	143
30.9130000000	131
30.9430000000	143
30.9730000000	132
31.0030000000	135
31.0330000000	129
31.0630000000	157
31.0930000000	126
31.1230000000	127
31.1530000000	133
31.1830000000	135
31.2130000000	102
31.2430000000	128
31.2730000000	124
31.3030000000	123
31.3330000000	154
31.3630000000	142
31.3930000000	138
31.4230000000	159
31.4530000000	144
31.4830000000	132
31.5130000000	146
31.5430000000	158
31.5730000000	155
31.6030000000	162
31.6330000000	168
31.6630000000	195
31.6930000000	284
31.7230000000	411
31.7530000000	542
31.7830000000	759
31.8130000000	1096
31.8430000000	1521
31.8730000000	1746
31.9030000000	1688
31.9330000000	1428
31.9630000000	1181
31.9930000000	1047
32.0230000000	997
32.0530000000	1155
32.0830000000	1131
32.1130000000	1208
32.1430000000	1058
32.1730000000	868
32.2030000000	614
32.2330000000	411
32.2630000000	285
32.2930000000	250
32.3230000000	190
32.3530000000	169
32.3830000000	157
32.4130000000	129
32.4430000000	121
32.4730000000	118
32.5030000000	122
32.5330000000	121
32.5630000000	119
32.5930000000	124
32.6230000000	109
32.6530000000	113
32.6830000000	108
32.7130000000	109
32.7430000000	123
32.7730000000	110
32.8030000000	105
32.8330000000	105
32.8630000000	125
32.8930000000	112
32.9230000000	103
32.9530000000	111
32.9830000000	110
33.0130000000	123
33.0430000000	107
33.0730000000	111
33.1030000000	115
33.1330000000	124
33.1630000000	117
33.1930000000	136
33.2230000000	131
33.2530000000	127
33.2830000000	136
33.3130000000	135
33.3430000000	142
33.3730000000	136
33.4030000000	101
33.4330000000	110
33.4630000000	109
33.4930000000	110
33.5230000000	95
33.5530000000	100
33.5830000000	97
33.6130000000	111
33.6430000000	102
33.6730000000	103
33.7030000000	108
33.7330000000	99
33.7630000000	102
33.7930000000	105
33.8230000000	86
33.8530000000	102
33.8830000000	114
33.9130000000	120
33.9430000000	102
33.9730000000	113
34.0030000000	109
34.0330000000	110
34.0630000000	104
34.0930000000	88
34.1230000000	109
34.1530000000	99
34.1830000000	74
34.2130000000	97
34.2430000000	103
34.2730000000	98
34.3030000000	100
34.3330000000	102
34.3630000000	98
34.3930000000	95
34.4230000000	95
34.4530000000	112
34.4830000000	104
34.5130000000	104
34.5430000000	108
34.5730000000	98
34.6030000000	98
34.6330000000	105
34.6630000000	109
34.6930000000	100
34.7230000000	102
34.7530000000	102
34.7830000000	109
34.8130000000	110
34.8430000000	98
34.8730000000	89
34.9030000000	91
34.9330000000	104
34.9630000000	100
34.9930000000	92
35.0230000000	107
35.0530000000	107
35.0830000000	105
35.1130000000	117
35.1430000000	123
35.1730000000	122
35.2030000000	167
35.2330000000	183
35.2630000000	242
35.2930000000	281
35.3230000000	281
35.3530000000	264
35.3830000000	246
35.4130000000	224
35.4430000000	165
35.4730000000	159
35.5030000000	132
35.5330000000	98
35.5630000000	100
35.5930000000	114
35.6230000000	112
35.6530000000	95
35.6830000000	104
35.7130000000	114
35.7430000000	109
35.7730000000	94
35.8030000000	86
35.8330000000	107
35.8630000000	106
35.8930000000	87
35.9230000000	100
35.9530000000	84
35.9830000000	92
36.0130000000	92
36.0430000000	92
36.0730000000	104
36.1030000000	98
36.1330000000	111
36.1630000000	108
36.1930000000	94
36.2230000000	99
36.2530000000	100
36.2830000000	100
36.3130000000	86
36.3430000000	91
36.3730000000	89
36.4030000000	103
36.4330000000	125
36.4630000000	139
36.4930000000	159
36.5230000000	228
36.5530000000	280
36.5830000000	329
36.6130000000	388
36.6430000000	460
36.6730000000	399
36.7030000000	332
36.7330000000	262
36.7630000000	206
36.7930000000	154
36.8230000000	127
36.8530000000	113
36.8830000000	109
36.9130000000	101
36.9430000000	93
36.9730000000	92
37.0030000000	86
37.0330000000	85
37.0630000000	113
37.0930000000	107
37.1230000000	89
37.1530000000	95
37.1830000000	103
37.2130000000	101
37.2430000000	90
37.2730000000	100
37.3030000000	100
37.3330000000	71
37.3630000000	89
37.3930000000	98
37.4230000000	96
37.4530000000	85
37.4830000000	83
37.5130000000	84
37.5430000000	107
37.5730000000	94
37.6030000000	71
37.6330000000	86
37.6630000000	85
37.6930000000	78
37.7230000000	91
37.7530000000	89
37.7830000000	86
37.8130000000	86
37.8430000000	88
37.8730000000	78
37.9030000000	77
37.9330000000	80
37.9630000000	81
37.9930000000	94
38.0230000000	93
38.0530000000	103
38.0830000000	87
38.1130000000	88
38.1430000000	94
38.1730000000	73
38.2030000000	84
38.2330000000	93
38.2630000000	81
38.2930000000	79
38.3230000000	93
38.3530000000	91
38.3830000000	98
38.4130000000	91
38.4430000000	93
38.4730000000	87
38.5030000000	82
38.5330000000	93
38.5630000000	97
38.5930000000	86
38.6230000000	92
38.6530000000	94
38.6830000000	83
38.7130000000	78
38.7430000000	81
38.7730000000	95
38.8030000000	97
38.8330000000	84
38.8630000000	77
38.8930000000	91
38.9230000000	108
38.9530000000	98
38.9830000000	90
39.0130000000	90
39.0430000000	83
39.0730000000	95
39.1030000000	101
39.1330000000	86
39.1630000000	93
39.1930000000	117
39.2230000000	104
39.2530000000	94
39.2830000000	86
39.3130000000	87
39.3430000000	108
39.3730000000	118
39.4030000000	106
39.4330000000	116
39.4630000000	101
39.4930000000	161
39.5230000000	213
39.5530000000	244
39.5830000000	373
39.6130000000	463
39.6430000000	668
39.6730000000	916
39.7030000000	1174
39.7330000000	1212
39.7630000000	1114
39.7930000000	838
39.8230000000	678
39.8530000000	496
39.8830000000	373
39.9130000000	200
39.9430000000	173
39.9730000000	158
40.0030000000	107
40.0330000000	105
40.0630000000	92
40.0930000000	98
40.1230000000	90
40.1530000000	92
40.1830000000	94
40.2130000000	88
40.2430000000	98
40.2730000000	87
40.3030000000	96
40.3330000000	94
40.3630000000	105
40.3930000000	76
40.4230000000	93
40.4530000000	74
40.4830000000	74
40.5130000000	85
40.5430000000	97
40.5730000000	77
40.6030000000	92
40.6330000000	91
40.6630000000	84
40.6930000000	76
40.7230000000	67
40.7530000000	83
40.7830000000	85
40.8130000000	93
40.8430000000	79
40.8730000000	96
40.9030000000	89
40.9330000000	102
40.9630000000	90
40.9930000000	99
41.0230000000	97
41.0530000000	97
41.0830000000	101
41.1130000000	102
41.1430000000	87
41.1730000000	101
41.2030000000	103
41.2330000000	99
41.2630000000	58
41.2930000000	81
41.3230000000	85
41.3530000000	81
41.3830000000	88
41.4130000000	83
41.4430000000	85
41.4730000000	86
41.5030000000	95
41.5330000000	91
41.5630000000	78
41.5930000000	79
41.6230000000	86
41.6530000000	84
41.6830000000	78
41.7130000000	70
41.7430000000	80
41.7730000000	87
41.8030000000	85
41.8330000000	75
41.8630000000	99
41.8930000000	81
41.9230000000	76
41.9530000000	82
41.9830000000	88
42.0130000000	87
42.0430000000	82
42.0730000000	83
42.1030000000	91
42.1330000000	95
42.1630000000	86
42.1930000000	77
42.2230000000	79
42.2530000000	88
42.2830000000	81
42.3130000000	85
42.3430000000	75
42.3730000000	81
42.4030000000	93
42.4330000000	79
42.4630000000	96
42.4930000000	103
42.5230000000	81
42.5530000000	74
42.5830000000	82
42.6130000000	84
42.6430000000	80
42.6730000000	88
42.7030000000	86
42.7330000000	80
42.7630000000	98
42.7930000000	104
42.8230000000	90
42.8530000000	114
42.8830000000	102
42.9130000000	123
42.9430000000	158
42.9730000000	191
43.0030000000	259
43.0330000000	379
43.0630000000	578
43.0930000000	817
43.1230000000	1098
43.1530000000	1224
43.1830000000	1231
43.2130000000	1041
43.2430000000	898
43.2730000000	626
43.3030000000	441
43.3330000000	323
43.3630000000	199
43.3930000000	154
43.4230000000	132
43.4530000000	120
43.4830000000	103
43.5130000000	98
43.5430000000	103
43.5730000000	96
43.6030000000	98
43.6330000000	111
43.6630000000	118
43.6930000000	127
43.7230000000	98
43.7530000000	117
43.7830000000	107
43.8130000000	102
43.8430000000	84
43.8730000000	96
43.9030000000	98
43.9330000000	86
43.9630000000	82
43.9930000000	90
44.0230000000	76
44.0530000000	69
44.0830000000	86
44.1130000000	92
44.1430000000	82
44.1730000000	78
44.2030000000	86
44.2330000000	75
44.2630000000	79
44.2930000000	88
44.3230000000	84
44.3530000000	82
44.3830000000	68
44.4130000000	74
44.4430000000	67
44.4730000000	68
44.5030000000	75
44.5330000000	82
44.5630000000	60
44.5930000000	67
44.6230000000	81
44.6530000000	81
44.6830000000	91
44.7130000000	74
44.7430000000	100
44.7730000000	91
44.8030000000	88
44.8330000000	110
44.8630000000	140
44.8930000000	181
44.9230000000	251
44.9530000000	314
44.9830000000	439
45.0130000000	637
45.0430000000	725
45.0730000000	771
45.1030000000	711
45.1330000000	594
45.1630000000	477
45.1930000000	349
45.2230000000	213
45.2530000000	154
45.2830000000	133
45.3130000000	104
45.3430000000	97
45.3730000000	78
45.4030000000	91
45.4330000000	62
45.4630000000	74
45.4930000000	84
45.5230000000	64
45.5530000000	60
45.5830000000	69
45.6130000000	76
45.6430000000	73
45.6730000000	72
45.7030000000	67
45.7330000000	64
45.7630000000	72
45.7930000000	69
45.8230000000	69
45.8530000000	82
45.8830000000	87
45.9130000000	83
45.9430000000	85
45.9730000000	106
46.0030000000	156
46.0330000000	194
46.0630000000	191
46.0930000000	188
46.1230000000	164
46.1530000000	151
46.1830000000	144
46.2130000000	126
46.2430000000	106
46.2730000000	91
46.3030000000	84
46.3330000000	75
46.3630000000	85
46.3930000000	90
46.4230000000	123
46.4530000000	113
46.4830000000	115
46.5130000000	111
46.5430000000	109
46.5730000000	96
46.6030000000	90
46.6330000000	71
46.6630000000	87
46.6930000000	77
46.7230000000	96
46.7530000000	85
46.7830000000	117
46.8130000000	116
46.8430000000	163
46.8730000000	191
46.9030000000	258
46.9330000000	287
46.9630000000	284
46.9930000000	247
47.0230000000	217
47.0530000000	204
47.0830000000	124
47.1130000000	106
47.1430000000	101
47.1730000000	89
47.2030000000	80
47.2330000000	83
47.2630000000	47
47.2930000000	62
47.3230000000	82
47.3530000000	69
47.3830000000	67
47.4130000000	84
47.4430000000	77
47.4730000000	88
47.5030000000	79
47.5330000000	83
47.5630000000	92
47.5930000000	86
47.6230000000	89
47.6530000000	83
47.6830000000	66
47.7130000000	66
47.7430000000	63
47.7730000000	78
47.8030000000	59
47.8330000000	57
47.8630000000	61
47.8930000000	62
47.9230000000	57
47.9530000000	49
47.9830000000	43
48.0130000000	57
48.0430000000	49
48.0730000000	60
48.1030000000	59
48.1330000000	46
48.1630000000	55
48.1930000000	64
48.2230000000	51
48.2530000000	72
48.2830000000	53
48.3130000000	57
48.3430000000	61
48.3730000000	58
48.4030000000	79
48.4330000000	66
48.4630000000	70
48.4930000000	70
48.5230000000	64
48.5530000000	61
48.5830000000	50
48.6130000000	58
48.6430000000	56
48.6730000000	47
48.7030000000	50
48.7330000000	66
48.7630000000	64
48.7930000000	58
48.8230000000	64
48.8530000000	54
48.8830000000	58
48.9130000000	63
48.9430000000	58
48.9730000000	55
49.0030000000	53
49.0330000000	57
49.0630000000	51
49.0930000000	51
49.1230000000	65
49.1530000000	47
49.1830000000	63
49.2130000000	71
49.2430000000	48
49.2730000000	60
49.3030000000	60
49.3330000000	67
49.3630000000	68
49.3930000000	62
49.4230000000	58
49.4530000000	64
49.4830000000	48
49.5130000000	60
49.5430000000	50
49.5730000000	51
49.6030000000	52
49.6330000000	62
49.6630000000	54
49.6930000000	59
49.7230000000	62
49.7530000000	48
49.7830000000	46
49.8130000000	57
49.8430000000	68
49.8730000000	51
49.9030000000	63
49.9330000000	50
49.9630000000	59
49.9930000000	62
50.0230000000	50
50.0530000000	41
50.0830000000	61
50.1130000000	51
50.1430000000	45
50.1730000000	70
50.2030000000	76
50.2330000000	62
50.2630000000	58
50.2930000000	61
50.3230000000	49
50.3530000000	65
50.3830000000	63
50.4130000000	92
50.4430000000	91
50.4730000000	96
50.5030000000	90
50.5330000000	92
50.5630000000	100
50.5930000000	91
50.6230000000	80
50.6530000000	61
50.6830000000	65
50.7130000000	48
50.7430000000	40
50.7730000000	59
50.8030000000	60
50.8330000000	47
50.8630000000	57
50.8930000000	54
50.9230000000	47
50.9530000000	53
50.9830000000	48
51.0130000000	56
51.0430000000	55
51.0730000000	47
51.1030000000	46
51.1330000000	37
51.1630000000	58
51.1930000000	59
51.2230000000	46
51.2530000000	52
51.2830000000	48
51.3130000000	53
51.3430000000	52
51.3730000000	51
51.4030000000	48
51.4330000000	47
51.4630000000	53
51.4930000000	51
51.5230000000	56
51.5530000000	54
51.5830000000	49
51.6130000000	59
51.6430000000	45
51.6730000000	52
51.7030000000	51
51.7330000000	53
51.7630000000	38
51.7930000000	53
51.8230000000	54
51.8530000000	52
51.8830000000	59
51.9130000000	51
51.9430000000	53
51.9730000000	63
52.0030000000	55
52.0330000000	64
52.0630000000	70
52.0930000000	85
52.1230000000	99
52.1530000000	87
52.1830000000	83
52.2130000000	85
52.2430000000	79
52.2730000000	68
52.3030000000	66
52.3330000000	74
52.3630000000	57
52.3930000000	47
52.4230000000	61
52.4530000000	66
52.4830000000	53
52.5130000000	41
52.5430000000	37
52.5730000000	51
52.6030000000	48
52.6330000000	53
52.6630000000	63
52.6930000000	62
52.7230000000	53
52.7530000000	71
52.7830000000	52
52.8130000000	44
52.8430000000	58
52.8730000000	44
52.9030000000	48
52.9330000000	50
52.9630000000	60
52.9930000000	51
53.0230000000	55
53.0530000000	42
53.0830000000	55
53.1130000000	59
53.1430000000	46
53.1730000000	50
53.2030000000	57
53.2330000000	58
53.2630000000	49
53.2930000000	44
53.3230000000	56
53.3530000000	48
53.3830000000	44
53.4130000000	54
53.4430000000	66
53.4730000000	50
53.5030000000	47
53.5330000000	46
53.5630000000	44
53.5930000000	54
53.6230000000	38
53.6530000000	50
53.6830000000	52
53.7130000000	64
53.7430000000	86
53.7730000000	82
53.8030000000	95
53.8330000000	122
53.8630000000	132
53.8930000000	141
53.9230000000	126
53.9530000000	105
53.9830000000	91
54.0130000000	75
54.0430000000	54
54.0730000000	66
54.1030000000	62
54.1330000000	42
54.1630000000	53
54.1930000000	46
54.2230000000	57
54.2530000000	52
54.2830000000	46
54.3130000000	49
54.3430000000	57
54.3730000000	53
54.4030000000	58
54.4330000000	48
54.4630000000	49
54.4930000000	56
54.5230000000	54
54.5530000000	50
54.5830000000	57
54.6130000000	50
54.6430000000	46
54.6730000000	54
54.7030000000	62
54.7330000000	57
54.7630000000	53
54.7930000000	51
54.8230000000	79
54.8530000000	60
54.8830000000	93
54.9130000000	111
54.9430000000	134
54.9730000000	108
55.0030000000	115
55.0330000000	100
55.0630000000	86
55.0930000000	93
55.1230000000	71
55.1530000000	64
55.1830000000	57
55.2130000000	51
55.2430000000	57
55.2730000000	53
55.3030000000	76
55.3330000000	71
55.3630000000	89
55.3930000000	118
55.4230000000	137
55.4530000000	135
55.4830000000	103
55.5130000000	125
55.5430000000	101
55.5730000000	82
55.6030000000	91
55.6330000000	69
55.6630000000	82
55.6930000000	64
55.7230000000	61
55.7530000000	53
55.7830000000	61
55.8130000000	52
55.8430000000	53
55.8730000000	46
55.9030000000	46
55.9330000000	43
55.9630000000	56
55.9930000000	43
56.0230000000	50
56.0530000000	44
56.0830000000	46
56.1130000000	52
56.1430000000	46
56.1730000000	48
56.2030000000	51
56.2330000000	40
56.2630000000	49
56.2930000000	46
56.3230000000	50
56.3530000000	42
56.3830000000	46
56.4130000000	50
56.4430000000	49
56.4730000000	51
56.5030000000	47
56.5330000000	44
56.5630000000	53
56.5930000000	43
56.6230000000	32
56.6530000000	37
56.6830000000	38
56.7130000000	31
56.7430000000	46
56.7730000000	53
56.8030000000	55
56.8330000000	48
56.8630000000	32
56.8930000000	41
56.9230000000	54
56.9530000000	50
56.9830000000	52
57.0130000000	49
57.0430000000	51
57.0730000000	48
57.1030000000	50
57.1330000000	62
57.1630000000	52
57.1930000000	52
57.2230000000	48
57.2530000000	57
57.2830000000	54
57.3130000000	50
57.3430000000	46
57.3730000000	42
57.4030000000	53
57.4330000000	41
57.4630000000	52
57.4930000000	39
57.5230000000	52
57.5530000000	48
57.5830000000	38
57.6130000000	43
57.6430000000	34
57.6730000000	45
57.7030000000	36
57.7330000000	51
57.7630000000	51
57.7930000000	38
57.8230000000	48
57.8530000000	37
57.8830000000	43
57.9130000000	41
57.9430000000	38
57.9730000000	36
58.0030000000	55
58.0330000000	46
58.0630000000	58
58.0930000000	50
58.1230000000	57
58.1530000000	42
58.1830000000	63
58.2130000000	49
58.2430000000	49
58.2730000000	40
58.3030000000	42
58.3330000000	39
58.3630000000	53
58.3930000000	40
58.4230000000	47
58.4530000000	52
58.4830000000	45
58.5130000000	50
58.5430000000	44
58.5730000000	35
58.6030000000	45
58.6330000000	48
58.6630000000	53
58.6930000000	48
58.7230000000	38
58.7530000000	35
58.7830000000	47
58.8130000000	48
58.8430000000	43
58.8730000000	50
58.9030000000	42
58.9330000000	38
58.9630000000	46
58.9930000000	34
59.0230000000	43
59.0530000000	41
59.0830000000	45
59.1130000000	39
59.1430000000	49
59.1730000000	53
59.2030000000	50
59.2330000000	43
59.2630000000	46
59.2930000000	47
59.3230000000	43
59.3530000000	40
59.3830000000	47
59.4130000000	49
59.4430000000	45
59.4730000000	56
59.5030000000	44
59.5330000000	52
59.5630000000	43
59.5930000000	48
59.6230000000	53
59.6530000000	41
59.6830000000	41
59.7130000000	40
59.7430000000	51
59.7730000000	51
59.8030000000	42
59.8330000000	48
59.8630000000	54
59.8930000000	44
59.9230000000	57
59.9530000000	39
59.9830000000	60
60.0130000000	56
60.0430000000	70
60.0730000000	83
60.1030000000	90
60.1330000000	104
60.1630000000	137
60.1930000000	133
60.2230000000	136
60.2530000000	124
60.2830000000	112
60.3130000000	103
60.3430000000	100
60.3730000000	74
60.4030000000	69
60.4330000000	60
60.4630000000	44
60.4930000000	41
60.5230000000	55
60.5530000000	34
60.5830000000	37
60.6130000000	47
60.6430000000	49
60.6730000000	44
60.7030000000	31
60.7330000000	49
60.7630000000	52
60.7930000000	46
60.8230000000	44
60.8530000000	54
60.8830000000	39
60.9130000000	44
60.9430000000	44
60.9730000000	38
61.0030000000	37
61.0330000000	44
61.0630000000	40
61.0930000000	49
61.1230000000	67
61.1530000000	54
61.1830000000	60
61.2130000000	60
61.2430000000	53
61.2730000000	59
61.3030000000	65
61.3330000000	66
61.3630000000	70
61.3930000000	68
61.4230000000	79
61.4530000000	84
61.4830000000	87
61.5130000000	128
61.5430000000	131
61.5730000000	128
61.6030000000	111
61.6330000000	86
61.6630000000	97
61.6930000000	87
61.7230000000	70
61.7530000000	55
61.7830000000	56
61.8130000000	40
61.8430000000	40
61.8730000000	55
61.9030000000	42
61.9330000000	38
61.9630000000	47
61.9930000000	63
62.0230000000	49
62.0530000000	36
62.0830000000	38
62.1130000000	61
62.1430000000	45
62.1730000000	35
62.2030000000	41
62.2330000000	45
62.2630000000	40
62.2930000000	40
62.3230000000	48
62.3530000000	37
62.3830000000	43
62.4130000000	38
62.4430000000	39
62.4730000000	45
62.5030000000	36
62.5330000000	48
62.5630000000	55
62.5930000000	43
62.6230000000	36
62.6530000000	50
62.6830000000	52
62.7130000000	35
62.7430000000	47
62.7730000000	42
62.8030000000	35
62.8330000000	45
62.8630000000	39
62.8930000000	38
62.9230000000	37
62.9530000000	38
62.9830000000	32
63.0130000000	48
63.0430000000	40
63.0730000000	39
63.1030000000	36
63.1330000000	39
63.1630000000	44
63.1930000000	45
63.2230000000	44
63.2530000000	42
63.2830000000	52
63.3130000000	62
63.3430000000	55
63.3730000000	46
63.4030000000	46
63.4330000000	46
63.4630000000	44
63.4930000000	51
63.5230000000	47
63.5530000000	43
63.5830000000	24
63.6130000000	48
63.6430000000	39
63.6730000000	35
63.7030000000	44
63.7330000000	44
63.7630000000	37
63.7930000000	47
63.8230000000	51
63.8530000000	63
63.8830000000	48
63.9130000000	36
63.9430000000	41
63.9730000000	45
64.0030000000	35
64.0330000000	38
64.0630000000	38
64.0930000000	39
64.1230000000	41
64.1530000000	56
64.1830000000	21
64.2130000000	47
64.2430000000	35
64.2730000000	46
64.3030000000	45
64.3330000000	38
64.3630000000	48
64.3930000000	44
64.4230000000	43
64.4530000000	50
64.4830000000	45
64.5130000000	49
64.5430000000	53
64.5730000000	46
64.6030000000	53
64.6330000000	44
64.6630000000	49
64.6930000000	41
64.7230000000	53
64.7530000000	48
64.7830000000	46
64.8130000000	47
64.8430000000	53
64.8730000000	42
64.9030000000	48
64.9330000000	48
64.9630000000	53
64.9930000000	38
65.0230000000	47
65.0530000000	41
65.0830000000	38
65.1130000000	49
65.1430000000	57
65.1730000000	39
65.2030000000	54
65.2330000000	53
65.2630000000	37
65.2930000000	36
65.3230000000	46
65.3530000000	52
65.3830000000	48
65.4130000000	55
65.4430000000	36
65.4730000000	46
65.5030000000	40
65.5330000000	37
65.5630000000	53
65.5930000000	40
65.6230000000	26
65.6530000000	38
65.6830000000	55
65.7130000000	45
65.7430000000	44
65.7730000000	34
65.8030000000	49
65.8330000000	46
65.8630000000	38
65.8930000000	41
65.9230000000	56
65.9530000000	46
65.9830000000	48
66.0130000000	70
66.0430000000	70
66.0730000000	90
66.1030000000	88
66.1330000000	124
66.1630000000	135
66.1930000000	175
66.2230000000	151
66.2530000000	145
66.2830000000	146
66.3130000000	129
66.3430000000	137
66.3730000000	104
66.4030000000	95
66.4330000000	81
66.4630000000	69
66.4930000000	44
66.5230000000	50
66.5530000000	43
66.5830000000	40
66.6130000000	53
66.6430000000	49
66.6730000000	55
66.7030000000	44
66.7330000000	50
66.7630000000	50
66.7930000000	50
66.8230000000	42
66.8530000000	44
66.8830000000	49
66.9130000000	38
66.9430000000	46
66.9730000000	37
67.0030000000	39
67.0330000000	43
67.0630000000	36
67.0930000000	47
67.1230000000	48
67.1530000000	50
67.1830000000	44
67.2130000000	32
67.2430000000	43
67.2730000000	48
67.3030000000	38
67.3330000000	39
67.3630000000	47
67.3930000000	38
67.4230000000	44
67.4530000000	38
67.4830000000	43
67.5130000000	40
67.5430000000	33
67.5730000000	40
67.6030000000	41
67.6330000000	47
67.6630000000	41
67.6930000000	49
67.7230000000	45
67.7530000000	46
67.7830000000	41
67.8130000000	49
67.8430000000	48
67.8730000000	35
67.9030000000	45
67.9330000000	31
67.9630000000	38
67.9930000000	40
68.0230000000	56
68.0530000000	43
68.0830000000	40
68.1130000000	42
68.1430000000	48
68.1730000000	44
68.2030000000	38
68.2330000000	33
68.2630000000	43
68.2930000000	32
68.3230000000	37
68.3530000000	41
68.3830000000	44
68.4130000000	42
68.4430000000	44
68.4730000000	37
68.5030000000	37
68.5330000000	40
68.5630000000	49
68.5930000000	38
68.6230000000	38
68.6530000000	25
68.6830000000	38
68.7130000000	43
68.7430000000	39
68.7730000000	44
68.8030000000	43
68.8330000000	38
68.8630000000	33
68.8930000000	43
68.9230000000	44
68.9530000000	54
68.9830000000	35
69.0130000000	31
69.0430000000	46
69.0730000000	44
69.1030000000	44
69.1330000000	55
69.1630000000	52
69.1930000000	48
69.2230000000	50
69.2530000000	44
69.2830000000	52
69.3130000000	38
69.3430000000	43
69.3730000000	36
69.4030000000	41
69.4330000000	53
69.4630000000	36
69.4930000000	38
69.5230000000	48
69.5530000000	51
69.5830000000	47
69.6130000000	50
69.6430000000	55
69.6730000000	43
69.7030000000	41
69.7330000000	46
69.7630000000	42
69.7930000000	50
69.8230000000	44
69.8530000000	46
69.8830000000	44
69.9130000000	48
69.9430000000	42
69.9730000000	38
70.0030000000	40
70.0330000000	44
70.0630000000	46
70.0930000000	30
70.1230000000	44
70.1530000000	45
70.1830000000	39
70.2130000000	31
70.2430000000	42
70.2730000000	33
70.3030000000	48
70.3330000000	51
70.3630000000	45
70.3930000000	31
70.4230000000	48
70.4530000000	35
70.4830000000	31
70.5130000000	31
70.5430000000	35
70.5730000000	41
70.6030000000	43
70.6330000000	44
70.6630000000	46
70.6930000000	36
70.7230000000	29
70.7530000000	39
70.7830000000	37
70.8130000000	48
70.8430000000	46
70.8730000000	33
70.9030000000	41
70.9330000000	41
70.9630000000	41
70.9930000000	50
71.0230000000	53
71.0530000000	43
71.0830000000	46
71.1130000000	42
71.1430000000	43
71.1730000000	37
71.2030000000	42
71.2330000000	35
71.2630000000	43
71.2930000000	30
71.3230000000	42
71.3530000000	40
71.3830000000	41
71.4130000000	42
71.4430000000	50
71.4730000000	54
71.5030000000	38
71.5330000000	35
71.5630000000	47
71.5930000000	44
71.6230000000	38
71.6530000000	34
71.6830000000	38
71.7130000000	28
71.7430000000	33
71.7730000000	52
71.8030000000	39
71.8330000000	44
71.8630000000	63
71.8930000000	49
71.9230000000	68
71.9530000000	61
71.9830000000	63
72.0130000000	56
72.0430000000	61
72.0730000000	57
72.1030000000	61
72.1330000000	79
72.1630000000	62
72.1930000000	73
72.2230000000	73
72.2530000000	99
72.2830000000	82
72.3130000000	104
72.3430000000	93
72.3730000000	95
72.4030000000	70
72.4330000000	90
72.4630000000	76
72.4930000000	68
72.5230000000	65
72.5530000000	59
72.5830000000	70
72.6130000000	66
72.6430000000	56
72.6730000000	77
72.7030000000	87
72.7330000000	89
72.7630000000	132
72.7930000000	138
72.8230000000	172
72.8530000000	160
72.8830000000	140
72.9130000000	132
72.9430000000	122
72.9730000000	115
73.0030000000	112
73.0330000000	126
73.0630000000	103
73.0930000000	79
73.1230000000	61
73.1530000000	61
73.1830000000	56
73.2130000000	50
73.2430000000	55
73.2730000000	46
73.3030000000	41
73.3330000000	54
73.3630000000	51
73.3930000000	54
73.4230000000	44
73.4530000000	32
73.4830000000	37
73.5130000000	42
73.5430000000	51
73.5730000000	36
73.6030000000	42
73.6330000000	51
73.6630000000	45
73.6930000000	42
73.7230000000	35
73.7530000000	40
73.7830000000	58
73.8130000000	37
73.8430000000	37
73.8730000000	28
73.9030000000	42
73.9330000000	42
73.9630000000	36
73.9930000000	52
74.0230000000	50
74.0530000000	39
74.0830000000	50
74.1130000000	39
74.1430000000	47
74.1730000000	36
74.2030000000	52
74.2330000000	36
74.2630000000	42
74.2930000000	35
74.3230000000	53
74.3530000000	41
74.3830000000	39
74.4130000000	36
74.4430000000	53
74.4730000000	43
74.5030000000	41
74.5330000000	31
74.5630000000	44
74.5930000000	45
74.6230000000	47
74.6530000000	64
74.6830000000	67
74.7130000000	49
74.7430000000	39
74.7730000000	50
74.8030000000	57
74.8330000000	56
74.8630000000	52
74.8930000000	61
74.9230000000	52
74.9530000000	51
74.9830000000	47
75.0130000000	53
75.0430000000	50
75.0730000000	70
75.1030000000	55
75.1330000000	51
75.1630000000	53
75.1930000000	48
75.2230000000	53
75.2530000000	53
75.2830000000	49
75.3130000000	58
75.3430000000	42
75.3730000000	44
75.4030000000	50
75.4330000000	38
75.4630000000	36
75.4930000000	47
75.5230000000	48
75.5530000000	35
75.5830000000	35
75.6130000000	40
75.6430000000	39
75.6730000000	26
75.7030000000	49
75.7330000000	46
75.7630000000	42
75.7930000000	33
75.8230000000	39
75.8530000000	52
75.8830000000	50
75.9130000000	34
75.9430000000	39
75.9730000000	30
76.0030000000	38
76.0330000000	41
76.0630000000	32
76.0930000000	38
76.1230000000	50
76.1530000000	45
76.1830000000	37
76.2130000000	40
76.2430000000	48
76.2730000000	35
76.3030000000	46
76.3330000000	47
76.3630000000	41
76.3930000000	48
76.4230000000	47
76.4530000000	35
76.4830000000	46
76.5130000000	30
76.5430000000	42
76.5730000000	44
76.6030000000	35
76.6330000000	34
76.6630000000	45
76.6930000000	34
76.7230000000	40
76.7530000000	35
76.7830000000	28
76.8130000000	33
76.8430000000	40
76.8730000000	45
76.9030000000	38
76.9330000000	40
76.9630000000	43
76.9930000000	44
77.0230000000	44
77.0530000000	34
77.0830000000	38
77.1130000000	38
77.1430000000	40
77.1730000000	31
77.2030000000	42
77.2330000000	39
77.2630000000	49
77.2930000000	44
77.3230000000	38
77.3530000000	56
77.3830000000	42
77.4130000000	55
77.4430000000	49
77.4730000000	75
77.5030000000	70
77.5330000000	76
77.5630000000	61
77.5930000000	74
77.6230000000	56
77.6530000000	60
77.6830000000	55
77.7130000000	53
77.7430000000	51
77.7730000000	57
77.8030000000	54
77.8330000000	35
77.8630000000	58
77.8930000000	55
77.9230000000	61
77.9530000000	65
77.9830000000	54
78.0130000000	45
78.0430000000	42
78.0730000000	35
78.1030000000	49
78.1330000000	51
78.1630000000	46
78.1930000000	52
78.2230000000	50
78.2530000000	38
78.2830000000	48
78.3130000000	32
78.3430000000	55
78.3730000000	45
78.4030000000	45
78.4330000000	40
78.4630000000	42
78.4930000000	45
78.5230000000	37
78.5530000000	38
78.5830000000	40
78.6130000000	45
78.6430000000	50
78.6730000000	56
78.7030000000	43
78.7330000000	50
78.7630000000	49
78.7930000000	58
78.8230000000	37
78.8530000000	56
78.8830000000	46
78.9130000000	37
78.9430000000	44
78.9730000000	45
79.0030000000	34
79.0330000000	54
79.0630000000	50
79.0930000000	34
79.1230000000	34
79.1530000000	29
79.1830000000	40
79.2130000000	42
79.2430000000	36
79.2730000000	38
79.3030000000	28
79.3330000000	39
79.3630000000	24
79.3930000000	34
79.4230000000	38
79.4530000000	31
79.4830000000	32
79.5130000000	42
79.5430000000	37
79.5730000000	49
79.6030000000	45
79.6330000000	63
79.6630000000	35
79.6930000000	41
79.7230000000	46
79.7530000000	51
79.7830000000	42
79.8130000000	49
79.8430000000	33
79.8730000000	45
79.9030000000	45
79.9330000000	48
79.9630000000	47
79.9930000000	30
80.0230000000	44
80.0530000000	49
80.0830000000	42
80.1130000000	39
80.1430000000	30
80.1730000000	31
80.2030000000	40
80.2330000000	35
80.2630000000	33
80.2930000000	39
80.3230000000	38
80.3530000000	32
80.3830000000	47
80.4130000000	35
80.4430000000	56
80.4730000000	56
80.5030000000	51
80.5330000000	59
80.5630000000	65
80.5930000000	63
80.6230000000	61
80.6530000000	48
80.6830000000	43
80.7130000000	48
80.7430000000	51
80.7730000000	47
80.8030000000	42
80.8330000000	28
80.8630000000	35
80.8930000000	44
80.9230000000	44
80.9530000000	47
80.9830000000	31
81.0130000000	34
81.0430000000	36
81.0730000000	33
81.1030000000	46
81.1330000000	42
81.1630000000	36
81.1930000000	45
81.2230000000	43
81.2530000000	41
81.2830000000	37
81.3130000000	47
81.3430000000	33
81.3730000000	50
81.4030000000	55
81.4330000000	34
81.4630000000	45
81.4930000000	43
81.5230000000	39
81.5530000000	42
81.5830000000	39
81.6130000000	38
81.6430000000	38
81.6730000000	43
81.7030000000	26
81.7330000000	46
81.7630000000	44
81.7930000000	51
81.8230000000	42
81.8530000000	50
81.8830000000	33
81.9130000000	42
81.9430000000	40
81.9730000000	36
82.0030000000	39
82.0330000000	46
82.0630000000	20
82.0930000000	37
82.1230000000	48
82.1530000000	47
82.1830000000	35
82.2130000000	36
82.2430000000	35
82.2730000000	33
82.3030000000	32
82.3330000000	35
82.3630000000	44
82.3930000000	44
82.4230000000	34
82.4530000000	34
82.4830000000	29
82.5130000000	34
82.5430000000	37
82.5730000000	37
82.6030000000	38
82.6330000000	37
82.6630000000	29
82.6930000000	37
82.7230000000	36
82.7530000000	46
82.7830000000	33
82.8130000000	35
82.8430000000	40
82.8730000000	46
82.9030000000	38
82.9330000000	34
82.9630000000	37
82.9930000000	45
83.0230000000	46
83.0530000000	36
83.0830000000	48
83.1130000000	43
83.1430000000	48
83.1730000000	51
83.2030000000	49
83.2330000000	50
83.2630000000	48
83.2930000000	55
83.3230000000	46
83.3530000000	34
83.3830000000	45
83.4130000000	39
83.4430000000	49
83.4730000000	56
83.5030000000	45
83.5330000000	40
83.5630000000	52
83.5930000000	43
83.6230000000	36
83.6530000000	35
83.6830000000	46
83.7130000000	47
83.7430000000	43
83.7730000000	32
83.8030000000	40
83.8330000000	21
83.8630000000	31
83.8930000000	48
83.9230000000	36
83.9530000000	35
83.9830000000	34
84.0130000000	33
84.0430000000	35
84.0730000000	32
84.1030000000	38
84.1330000000	38
84.1630000000	45
84.1930000000	34
84.2230000000	34
84.2530000000	43
84.2830000000	37
84.3130000000	44
84.3430000000	32
84.3730000000	31
84.4030000000	20
84.4330000000	36
84.4630000000	37
84.4930000000	42
84.5230000000	32
84.5530000000	36
84.5830000000	35
84.6130000000	32
84.6430000000	29
84.6730000000	42
84.7030000000	37
84.7330000000	37
84.7630000000	33
84.7930000000	35
84.8230000000	47
84.8530000000	46
84.8830000000	39
84.9130000000	38
84.9430000000	34
84.9730000000	30
85.0030000000	41
85.0330000000	35
85.0630000000	38
85.0930000000	44
85.1230000000	38
85.1530000000	38
85.1830000000	31
85.2130000000	42
85.2430000000	34
85.2730000000	43
85.3030000000	36
85.3330000000	37
85.3630000000	29
85.3930000000	40
85.4230000000	41
85.4530000000	53
85.4830000000	41
85.5130000000	51
85.5430000000	42
85.5730000000	37
85.6030000000	52
85.6330000000	43
85.6630000000	43
85.6930000000	38
85.7230000000	33
85.7530000000	31
85.7830000000	48
85.8130000000	42
85.8430000000	35
85.8730000000	37
85.9030000000	37
85.9330000000	41
85.9630000000	39
85.9930000000	41
86.0230000000	31
86.0530000000	32
86.0830000000	43
86.1130000000	39
86.1430000000	43
86.1730000000	32
86.2030000000	37
86.2330000000	36
86.2630000000	32
86.2930000000	37
86.3230000000	41
86.3530000000	39
86.3830000000	36
86.4130000000	47
86.4430000000	44
86.4730000000	42
86.5030000000	38
86.5330000000	32
86.5630000000	39
86.5930000000	40
86.6230000000	39
86.6530000000	34
86.6830000000	35
86.7130000000	43
86.7430000000	39
86.7730000000	35
86.8030000000	46
86.8330000000	49
86.8630000000	42
86.8930000000	47
86.9230000000	50
86.9530000000	45
86.9830000000	44
87.0130000000	44
87.0430000000	36
87.0730000000	30
87.1030000000	39
87.1330000000	40
87.1630000000	35
87.1930000000	41
87.2230000000	40
87.2530000000	32
87.2830000000	35
87.3130000000	46
87.3430000000	37
87.3730000000	39
87.4030000000	48
87.4330000000	39
87.4630000000	34
87.4930000000	39
87.5230000000	42
87.5530000000	35
87.5830000000	45
87.6130000000	45
87.6430000000	45
87.6730000000	40
87.7030000000	47
87.7330000000	44
87.7630000000	39
87.7930000000	34
87.8230000000	41
87.8530000000	41
87.8830000000	40
87.9130000000	37
87.9430000000	34
87.9730000000	29
88.0030000000	48
88.0330000000	41
88.0630000000	38
88.0930000000	38
88.1230000000	48
88.1530000000	50
88.1830000000	52
88.2130000000	47
88.2430000000	53
88.2730000000	52
88.3030000000	56
88.3330000000	35
88.3630000000	47
88.3930000000	42
88.4230000000	46
88.4530000000	41
88.4830000000	47
88.5130000000	55
88.5430000000	48
88.5730000000	58
88.6030000000	41
88.6330000000	31
88.6630000000	36
88.6930000000	43
88.7230000000	42
88.7530000000	39
88.7830000000	37
88.8130000000	38
88.8430000000	37
88.8730000000	38
88.9030000000	36
88.9330000000	36
88.9630000000	33
88.9930000000	36
89.0230000000	41
89.0530000000	46
89.0830000000	31
89.1130000000	44
89.1430000000	51
89.1730000000	37
89.2030000000	46
89.2330000000	28
89.2630000000	34
89.2930000000	38
89.3230000000	51
89.3530000000	49
89.3830000000	49
89.4130000000	46
89.4430000000	51
89.4730000000	61
89.5030000000	70
89.5330000000	46
89.5630000000	45
89.5930000000	52
89.6230000000	45
89.6530000000	44
89.6830000000	44
89.7130000000	40
89.7430000000	44
89.7730000000	51
89.8030000000	41
89.8330000000	34
89.8630000000	39
89.8930000000	44
89.9230000000	65
89.9530000000	52
89.9830000000	41
90.0130000000	42
90.0430000000	36
90.0730000000	31
90.1030000000	40
90.1330000000	27
90.1630000000	39
90.1930000000	45
90.2230000000	39
90.2530000000	25
90.2830000000	47
90.3130000000	45
90.3430000000	34
90.3730000000	43
90.4030000000	34
90.4330000000	41
90.4630000000	30
90.4930000000	37
90.5230000000	48
90.5530000000	27
90.5830000000	44
90.6130000000	34
90.6430000000	31
90.6730000000	37
90.7030000000	45
90.7330000000	39
90.7630000000	38
90.7930000000	43
90.8230000000	41
90.8530000000	42
90.8830000000	48
90.9130000000	29
90.9430000000	40
90.9730000000	37
91.0030000000	49
91.0330000000	45
91.0630000000	37
91.0930000000	37
91.1230000000	37
91.1530000000	49
91.1830000000	41
91.2130000000	32
91.2430000000	37
91.2730000000	33
91.3030000000	30
91.3330000000	45
91.3630000000	48
91.3930000000	43
91.4230000000	36
91.4530000000	40
91.4830000000	36
91.5130000000	34
91.5430000000	37
91.5730000000	45
91.6030000000	39
91.6330000000	35
91.6630000000	45
91.6930000000	41
91.7230000000	31
91.7530000000	47
91.7830000000	35
91.8130000000	34
91.8430000000	37
91.8730000000	33
91.9030000000	36
91.9330000000	39
91.9630000000	27
91.9930000000	43
92.0230000000	32
92.0530000000	35
92.0830000000	45
92.1130000000	45
92.1430000000	41
92.1730000000	42
92.2030000000	33
92.2330000000	38
92.2630000000	35
92.2930000000	39
92.3230000000	43
92.3530000000	35
92.3830000000	39
92.4130000000	38
92.4430000000	34
92.4730000000	43
92.5030000000	35
92.5330000000	41
92.5630000000	48
92.5930000000	39
92.6230000000	36
92.6530000000	42
92.6830000000	35
92.7130000000	53
92.7430000000	37
92.7730000000	37
92.8030000000	29
92.8330000000	26
92.8630000000	37
92.8930000000	40
92.9230000000	32
92.9530000000	36
92.9830000000	42
93.0130000000	35
93.0430000000	35
93.0730000000	34
93.1030000000	31
93.1330000000	32
93.1630000000	39
93.1930000000	39
93.2230000000	40
93.2530000000	40
93.2830000000	37
93.3130000000	41
93.3430000000	40
93.3730000000	34
93.4030000000	30
93.4330000000	39
93.4630000000	29
93.4930000000	38
93.5230000000	51
93.5530000000	36
93.5830000000	38
93.6130000000	37
93.6430000000	40
93.6730000000	48
93.7030000000	43
93.7330000000	47
93.7630000000	47
93.7930000000	34
93.8230000000	41
93.8530000000	48
93.8830000000	44
93.9130000000	35
93.9430000000	43
93.9730000000	48
94.0030000000	36
94.0330000000	30
94.0630000000	35
94.0930000000	29
94.1230000000	29
94.1530000000	27
94.1830000000	32
94.2130000000	25
94.2430000000	30
94.2730000000	43
94.3030000000	44
94.3330000000	51
94.3630000000	41
94.3930000000	35
94.4230000000	43
94.4530000000	39
94.4830000000	44
94.5130000000	50
94.5430000000	40
94.5730000000	34
94.6030000000	46
94.6330000000	46
94.6630000000	45
94.6930000000	42
94.7230000000	32
94.7530000000	32
94.7830000000	33
94.8130000000	41
94.8430000000	32
94.8730000000	33
94.9030000000	36
94.9330000000	28
94.9630000000	44
94.9930000000	36
95.0230000000	30
95.0530000000	38
95.0830000000	43
95.1130000000	40
95.1430000000	39
95.1730000000	38
95.2030000000	37
95.2330000000	37
95.2630000000	40
95.2930000000	31
95.3230000000	30
95.3530000000	32
95.3830000000	35
95.4130000000	37
95.4430000000	29
95.4730000000	32
95.5030000000	37
95.5330000000	44
95.5630000000	50
95.5930000000	32
95.6230000000	47
95.6530000000	39
95.6830000000	43
95.7130000000	31
95.7430000000	33
95.7730000000	32
95.8030000000	47
95.8330000000	34
95.8630000000	38
95.8930000000	41
95.9230000000	39
95.9530000000	39
95.9830000000	37
96.0130000000	42
96.0430000000	38
96.0730000000	29
96.1030000000	33
96.1330000000	41
96.1630000000	44
96.1930000000	36
96.2230000000	33
96.2530000000	37
96.2830000000	52
96.3130000000	46
96.3430000000	46
96.3730000000	32
96.4030000000	37
96.4330000000	49
96.4630000000	29
96.4930000000	35
96.5230000000	48
96.5530000000	49
96.5830000000	40
96.6130000000	47
96.6430000000	44
96.6730000000	36
96.7030000000	42
96.7330000000	51
96.7630000000	43
96.7930000000	33
96.8230000000	38
96.8530000000	47
96.8830000000	35
96.9130000000	38
96.9430000000	34
96.9730000000	27
97.0030000000	38
97.0330000000	39
97.0630000000	40
97.0930000000	37
97.1230000000	28
97.1530000000	38
97.1830000000	31
97.2130000000	52
97.2430000000	45
97.2730000000	40
97.3030000000	34
97.3330000000	34
97.3630000000	42
97.3930000000	34
97.4230000000	32
97.4530000000	41
97.4830000000	36
97.5130000000	36
97.5430000000	40
97.5730000000	32
97.6030000000	33
97.6330000000	42
97.6630000000	39
97.6930000000	33
97.7230000000	33
97.7530000000	37
97.7830000000	43
97.8130000000	44
97.8430000000	50
97.8730000000	32
97.9030000000	46
97.9330000000	37
97.9630000000	38
97.9930000000	42
98.0230000000	34
98.0530000000	40
98.0830000000	50
98.1130000000	38
98.1430000000	42
98.1730000000	37
98.2030000000	37
98.2330000000	30
98.2630000000	39
98.2930000000	36
98.3230000000	33
98.3530000000	43
98.3830000000	36
98.4130000000	41
98.4430000000	42
98.4730000000	42
98.5030000000	41
98.5330000000	39
98.5630000000	39
98.5930000000	35
98.6230000000	32
98.6530000000	43
98.6830000000	45
98.7130000000	44
98.7430000000	43
98.7730000000	34
98.8030000000	30
98.8330000000	36
98.8630000000	36
98.8930000000	30
98.9230000000	39
98.9530000000	45
98.9830000000	35
99.0130000000	31
99.0430000000	42
99.0730000000	38
99.1030000000	34
99.1330000000	35
99.1630000000	32
99.1930000000	31
99.2230000000	45
99.2530000000	36
99.2830000000	37
99.3130000000	37
99.3430000000	30
99.3730000000	34
99.4030000000	25
99.4330000000	46
99.4630000000	45
99.4930000000	40
99.5230000000	30
99.5530000000	38
99.5830000000	45
99.6130000000	40
99.6430000000	38
99.6730000000	33
99.7030000000	43
99.7330000000	36
99.7630000000	37
99.7930000000	45
99.8230000000	38
99.8530000000	47
99.8830000000	47
99.9130000000	40
99.9430000000	43
99.9730000000	39
100.0030000000	32
100.0330000000	44
100.0630000000	48
100.0930000000	32
100.1230000000	36
100.1530000000	34
100.1830000000	24
100.2130000000	36
100.2430000000	45
100.2730000000	40
100.3030000000	31
100.3330000000	38
100.3630000000	42
100.3930000000	35
100.4230000000	31
100.4530000000	40
100.4830000000	41
100.5130000000	33
100.5430000000	37
100.5730000000	44
100.6030000000	37
100.6330000000	45
100.6630000000	20
100.6930000000	34
100.7230000000	52
100.7530000000	28
100.7830000000	35
100.8130000000	52
100.8430000000	40
100.8730000000	47
100.9030000000	36
100.9330000000	30
100.9630000000	24
100.9930000000	41
101.0230000000	43
101.0530000000	29
101.0830000000	34
101.1130000000	35
101.1430000000	32
101.1730000000	37
101.2030000000	39
101.2330000000	44
101.2630000000	42
101.2930000000	55
101.3230000000	45
101.3530000000	35
101.3830000000	31
101.4130000000	36
101.4430000000	43
101.4730000000	47
101.5030000000	43
101.5330000000	30
101.5630000000	32
101.5930000000	44
101.6230000000	40
101.6530000000	37
101.6830000000	36
101.7130000000	28
101.7430000000	38
101.7730000000	34
101.8030000000	40
101.8330000000	39
101.8630000000	34
101.8930000000	38
101.9230000000	40
101.9530000000	42
101.9830000000	42
102.0130000000	25
102.0430000000	33
102.0730000000	31
102.1030000000	42
102.1330000000	42
102.1630000000	30
102.1930000000	43
102.2230000000	42
102.2530000000	40
102.2830000000	30
102.3130000000	29
102.3430000000	39
102.3730000000	45
102.4030000000	36
102.4330000000	33
102.4630000000	34
102.4930000000	27
102.5230000000	31
102.5530000000	36
102.5830000000	34
102.6130000000	35
102.6430000000	34
102.6730000000	28
102.7030000000	40
102.7330000000	36
102.7630000000	34
102.7930000000	41
102.8230000000	32
102.8530000000	47
102.8830000000	47
102.9130000000	37
102.9430000000	40
102.9730000000	36
103.0030000000	38
103.0330000000	44
103.0630000000	41
103.0930000000	33
103.1230000000	37
103.1530000000	33
103.1830000000	37
103.2130000000	39
103.2430000000	32
103.2730000000	38
103.3030000000	42
103.3330000000	35
103.3630000000	40
103.3930000000	38
103.4230000000	31
103.4530000000	39
103.4830000000	29
103.5130000000	35
103.5430000000	42
103.5730000000	34
103.6030000000	33
103.6330000000	40
103.6630000000	48
103.6930000000	38
103.7230000000	38
103.7530000000	40
103.7830000000	33
103.8130000000	43
103.8430000000	31
103.8730000000	36
103.9030000000	40
103.9330000000	34
103.9630000000	43
103.9930000000	31
104.0230000000	33
104.0530000000	36
104.0830000000	40
104.1130000000	26
104.1430000000	51
104.1730000000	41
104.2030000000	50
104.2330000000	36
104.2630000000	39
104.2930000000	43
104.3230000000	34
104.3530000000	42
104.3830000000	49
104.4130000000	49
104.4430000000	47
104.4730000000	37
104.5030000000	45
104.5330000000	45
104.5630000000	45
104.5930000000	43
104.6230000000	34
104.6530000000	35
104.6830000000	35
104.7130000000	40
104.7430000000	23
104.7730000000	37
104.8030000000	42
104.8330000000	43
104.8630000000	46
104.8930000000	42
104.9230000000	37
104.9530000000	46
104.9830000000	39
105.0130000000	35
105.0430000000	40
105.0730000000	38
105.1030000000	37
105.1330000000	41
105.1630000000	41
105.1930000000	36
105.2230000000	36
105.2530000000	42
105.2830000000	39
105.3130000000	34
105.3430000000	41
105.3730000000	42
105.4030000000	33
105.4330000000	25
105.4630000000	36
105.4930000000	47
105.5230000000	47
105.5530000000	40
105.5830000000	47
105.6130000000	32
105.6430000000	43
105.6730000000	56
105.7030000000	29
105.7330000000	40
105.7630000000	42
105.7930000000	36
105.8230000000	48
105.8530000000	48
105.8830000000	38
105.9130000000	38
105.9430000000	43
105.9730000000	33
106.0030000000	36
106.0330000000	38
106.0630000000	47
106.0930000000	45
106.1230000000	39
106.1530000000	28
106.1830000000	39
106.2130000000	45
106.2430000000	33
106.2730000000	34
106.3030000000	42
106.3330000000	46
106.3630000000	44
106.3930000000	48
106.4230000000	45
106.4530000000	31
106.4830000000	41
106.5130000000	42
106.5430000000	52
106.5730000000	50
106.6030000000	42
106.6330000000	46
106.6630000000	45
106.6930000000	33
106.7230000000	35
106.7530000000	40
106.7830000000	42
106.8130000000	58
106.8430000000	54
106.8730000000	37
106.9030000000	51
106.9330000000	44
106.9630000000	41
106.9930000000	34
107.0230000000	37
107.0530000000	37
107.0830000000	23
107.1130000000	30
107.1430000000	23
107.1730000000	31
107.2030000000	38
107.2330000000	51
107.2630000000	39
107.2930000000	34
107.3230000000	42
107.3530000000	40
107.3830000000	42
107.4130000000	32
107.4430000000	30
107.4730000000	28
107.5030000000	42
107.5330000000	34
107.5630000000	34
107.5930000000	38
107.6230000000	36
107.6530000000	48
107.6830000000	35
107.7130000000	41
107.7430000000	46
107.7730000000	35
107.8030000000	35
107.8330000000	35
107.8630000000	42
107.8930000000	42
107.9230000000	36
107.9530000000	36
107.9830000000	37
108.0130000000	49
108.0430000000	47
108.0730000000	38
108.1030000000	33
108.1330000000	37
108.1630000000	26
108.1930000000	43
108.2230000000	32
108.2530000000	41
108.2830000000	24
108.3130000000	31
108.3430000000	43
108.3730000000	41
108.4030000000	41
108.4330000000	41
108.4630000000	38
108.4930000000	35
108.5230000000	35
108.5530000000	29
108.5830000000	42
108.6130000000	49
108.6430000000	42
108.6730000000	27
108.7030000000	28
108.7330000000	34
108.7630000000	37
108.7930000000	35
108.8230000000	41
108.8530000000	41
108.8830000000	37
108.9130000000	42
108.9430000000	38
108.9730000000	26
109.0030000000	36
109.0330000000	30
109.0630000000	40
109.0930000000	36
109.1230000000	29
109.1530000000	24
109.1830000000	43
109.2130000000	34
109.2430000000	35
109.2730000000	39
109.3030000000	34
109.3330000000	41
109.3630000000	42
109.3930000000	40
109.4230000000	41
109.4530000000	46
109.4830000000	41
109.5130000000	39
109.5430000000	31
109.5730000000	48
109.6030000000	45
109.6330000000	42
109.6630000000	39
109.6930000000	42
109.7230000000	44
109.7530000000	35
109.7830000000	38
109.8130000000	43
109.8430000000	35
109.8730000000	37
109.9030000000	47
109.9330000000	37
109.9630000000	39
109.9930000000	24
110.0230000000	44
110.0530000000	38
110.0830000000	42
110.1130000000	42
110.1430000000	45
110.1730000000	46
110.2030000000	42
110.2330000000	35
110.2630000000	33
110.2930000000	45
110.3230000000	51
110.3530000000	39
110.3830000000	47
110.4130000000	40
110.4430000000	47
110.4730000000	48
110.5030000000	42
110.5330000000	37
110.5630000000	38
110.5930000000	48
110.6230000000	33
110.6530000000	32
110.6830000000	37
110.7130000000	36
110.7430000000	33
110.7730000000	41
110.8030000000	36
110.8330000000	42
110.8630000000	46
110.8930000000	40
110.9230000000	39
110.9530000000	40
110.9830000000	37
111.0130000000	36
111.0430000000	34
111.0730000000	46
111.1030000000	44
111.1330000000	38
111.1630000000	41
111.1930000000	32
111.2230000000	36
111.2530000000	49
111.2830000000	32
111.3130000000	37
111.3430000000	49
111.3730000000	51
111.4030000000	35
111.4330000000	38
111.4630000000	38
111.4930000000	46
111.5230000000	48
111.5530000000	47
111.5830000000	35
111.6130000000	44
111.6430000000	31
111.6730000000	49
111.7030000000	38
111.7330000000	39
111.7630000000	41
111.7930000000	33
111.8230000000	41
111.8530000000	41
111.8830000000	45
111.9130000000	47
111.9430000000	40
111.9730000000	40
112.0030000000	38
112.0330000000	38
112.0630000000	45
112.0930000000	35
112.1230000000	34
112.1530000000	38
112.1830000000	43
112.2130000000	34
112.2430000000	34
112.2730000000	45
112.3030000000	45
112.3330000000	35
112.3630000000	52
112.3930000000	48
112.4230000000	41
112.4530000000	50
112.4830000000	49
112.5130000000	36
112.5430000000	40
112.5730000000	49
112.6030000000	41
112.6330000000	42
112.6630000000	36
112.6930000000	41
112.7230000000	42
112.7530000000	36
112.7830000000	42
112.8130000000	55
112.8430000000	51
112.8730000000	50
112.9030000000	58
112.9330000000	65
112.9630000000	66
112.9930000000	63
113.0230000000	57
113.0530000000	63
113.0830000000	48
113.1130000000	50
113.1430000000	57
113.1730000000	63
113.2030000000	65
113.2330000000	47
113.2630000000	44
113.2930000000	46
113.3230000000	67
113.3530000000	68
113.3830000000	64
113.4130000000	57
113.4430000000	49
113.4730000000	49
113.5030000000	42
113.5330000000	40
113.5630000000	39
113.5930000000	35
113.6230000000	41
113.6530000000	22
113.6830000000	33
113.7130000000	47
113.7430000000	50
113.7730000000	37
113.8030000000	46
113.8330000000	46
113.8630000000	42
113.8930000000	42
113.9230000000	42
113.9530000000	42
113.9830000000	34
114.0130000000	37
114.0430000000	37
114.0730000000	56
114.1030000000	49
114.1330000000	48
114.1630000000	40
114.1930000000	31
114.2230000000	43
114.2530000000	52
114.2830000000	51
114.3130000000	47
114.3430000000	42
114.3730000000	45
114.4030000000	47
114.4330000000	36
114.4630000000	1
114.4930000000	1
114.5230000000	1
114.5530000000	1
114.5830000000	1
