0.3130000000	1
0.3430000000	1
0.3730000000	1
0.4030000000	1
0.4330000000	1
0.4630000000	1
0.4930000000	1
0.5230000000	1
0.5530000000	1
0.5830000000	1
0.6130000000	4
0.6430000000	1
0.6730000000	1
0.7030000000	1
0.7330000000	1
0.7630000000	1
0.7930000000	1
0.8230000000	1
0.8530000000	1
0.8830000000	2
0.9130000000	1
0.9430000000	2
0.9730000000	1
1.0030000000	1
1.0330000000	1
1.0630000000	1
1.0930000000	1
1.1230000000	1
1.1530000000	1
1.1830000000	1
1.2130000000	1
1.2430000000	1
1.2730000000	1
1.3030000000	1
1.3330000000	1
1.3630000000	1
1.3930000000	2
1.4230000000	2
1.4530000000	2
1.4830000000	1
1.5130000000	1
1.5430000000	1
1.5730000000	1
1.6030000000	1
1.6330000000	3
1.6630000000	2
1.6930000000	1
1.7230000000	1
1.7530000000	1
1.7830000000	1
1.8130000000	2
1.8430000000	3
1.8730000000	1
1.9030000000	2
1.9330000000	2
1.9630000000	1
1.9930000000	2
2.0230000000	2
2.0530000000	2
2.0830000000	1
2.1130000000	2
2.1430000000	2
2.1730000000	1
2.2030000000	1
2.2330000000	2
2.2630000000	1
2.2930000000	1
2.3230000000	2
2.3530000000	1
2.3830000000	2
2.4130000000	1
2.4430000000	1
2.4730000000	2
2.5030000000	2
2.5330000000	1
2.5630000000	2
2.5930000000	2
2.6230000000	1
2.6530000000	1
2.6830000000	1
2.7130000000	1
2.7430000000	1
2.7730000000	2
2.8030000000	2
2.8330000000	1
2.8630000000	2
2.8930000000	1
2.9230000000	2
2.9530000000	2
2.9830000000	3
3.0130000000	2
3.0430000000	1
3.0730000000	3
3.1030000000	1
3.1330000000	3
3.1630000000	1
3.1930000000	1
3.2230000000	1
3.2530000000	2
3.2830000000	1
3.3130000000	1
3.3430000000	3
3.3730000000	2
3.4030000000	1
3.4330000000	2
3.4630000000	5
3.4930000000	5
3.5230000000	2
3.5530000000	1
3.5830000000	3
3.6130000000	3
3.6430000000	1
3.6730000000	1
3.7030000000	2
3.7330000000	3
3.7630000000	2
3.7930000000	2
3.8230000000	2
3.8530000000	1
3.8830000000	4
3.9130000000	4
3.9430000000	4
3.9730000000	5
4.0030000000	0
4.0330000000	1
4.0630000000	2
4.0930000000	4
4.1230000000	5
4.1530000000	3
4.1830000000	2
4.2130000000	1
4.2430000000	4
4.2730000000	5
4.3030000000	7
4.3330000000	4
4.3630000000	6
4.3930000000	3
4.4230000000	4
4.4530000000	7
4.4830000000	12
4.5130000000	16
4.5430000000	30
4.5730000000	52
4.6030000000	71
4.6330000000	105
4.6630000000	107
4.6930000000	112
4.7230000000	148
4.7530000000	113
4.7830000000	122
4.8130000000	134
4.8430000000	133
4.8730000000	134
4.9030000000	126
4.9330000000	130
4.9630000000	133
4.9930000000	128
5.0230000000	164
5.0530000000	131
5.0830000000	137
5.1130000000	137
5.1430000000	141
5.1730000000	140
5.2030000000	120
5.2330000000	116
5.2630000000	139
5.2930000000	158
5.3230000000	115
5.3530000000	144
5.3830000000	150
5.4130000000	129
5.4430000000	149
5.4730000000	147
5.5030000000	141
5.5330000000	146
5.5630000000	156
5.5930000000	138
5.6230000000	137
5.6530000000	142
5.6830000000	149
5.7130000000	119
5.7430000000	124
5.7730000000	152
5.8030000000	141
5.8330000000	141
5.8630000000	133
5.8930000000	153
5.9230000000	155
5.9530000000	130
5.9830000000	118
6.0130000000	133
6.0430000000	131
6.0730000000	157
6.1030000000	146
6.1330000000	130
6.1630000000	150
6.1930000000	136
6.2230000000	143
6.2530000000	158
6.2830000000	160
6.3130000000	156
6.3430000000	137
6.3730000000	151
6.4030000000	133
6.4330000000	158
6.4630000000	172
6.4930000000	137
6.5230000000	128
6.5530000000	143
6.5830000000	135
6.6130000000	158
6.6430000000	155
6.6730000000	153
6.7030000000	158
6.7330000000	166
6.7630000000	144
6.7930000000	149
6.8230000000	153
6.8530000000	152
6.8830000000	146
6.9130000000	159
6.9430000000	149
6.9730000000	149
7.0030000000	163
7.0330000000	146
7.0630000000	135
7.0930000000	154
7.1230000000	154
7.1530000000	142
7.1830000000	137
7.2130000000	159
7.2430000000	158
7.2730000000	144
7.3030000000	156
7.3330000000	142
7.3630000000	132
7.3930000000	154
7.4230000000	135
7.4530000000	132
7.4830000000	129
7.5130000000	130
7.5430000000	142
7.5730000000	134
7.6030000000	143
7.6330000000	158
7.6630000000	151
7.6930000000	139
7.7230000000	140
7.7530000000	151
7.7830000000	155
7.8130000000	151
7.8430000000	154
7.8730000000	162
7.9030000000	145
7.9330000000	134
7.9630000000	146
7.9930000000	154
8.0230000000	157
8.0530000000	135
8.0830000000	133
8.1130000000	127
8.1430000000	160
8.1730000000	139
8.2030000000	129
8.2330000000	124
8.2630000000	155
8.2930000000	126
8.3230000000	148
8.3530000000	150
8.3830000000	140
8.4130000000	137
8.4430000000	134
8.4730000000	154
8.5030000000	137
8.5330000000	145
8.5630000000	167
8.5930000000	136
8.6230000000	163
8.6530000000	150
8.6830000000	127
8.7130000000	125
8.7430000000	136
8.7730000000	166
8.8030000000	136
8.8330000000	154
8.8630000000	148
8.8930000000	131
8.9230000000	136
8.9530000000	134
8.9830000000	157
9.0130000000	165
9.0430000000	143
9.0730000000	135
9.1030000000	135
9.1330000000	149
9.1630000000	141
9.1930000000	134
9.2230000000	140
9.2530000000	133
9.2830000000	151
9.3130000000	143
9.3430000000	136
9.3730000000	138
9.4030000000	146
9.4330000000	131
9.4630000000	132
9.4930000000	130
9.5230000000	160
9.5530000000	150
9.5830000000	154
9.6130000000	150
9.6430000000	156
9.6730000000	142
9.7030000000	138
9.7330000000	146
9.7630000000	152
9.7930000000	143
9.8230000000	131
9.8530000000	137
9.8830000000	163
9.9130000000	163
9.9430000000	162
9.9730000000	142
10.0030000000	125
10.0330000000	158
10.0630000000	171
10.0930000000	144
10.1230000000	138
10.1530000000	139
10.1830000000	150
10.2130000000	139
10.2430000000	151
10.2730000000	142
10.3030000000	128
10.3330000000	139
10.3630000000	155
10.3930000000	143
10.4230000000	133
10.4530000000	150
10.4830000000	127
10.5130000000	146
10.5430000000	142
10.5730000000	146
10.6030000000	137
10.6330000000	152
10.6630000000	160
10.6930000000	152
10.7230000000	144
10.7530000000	138
10.7830000000	158
10.8130000000	142
10.8430000000	145
10.8730000000	144
10.9030000000	160
10.9330000000	129
10.9630000000	134
10.9930000000	163
11.0230000000	141
11.0530000000	123
11.0830000000	131
11.1130000000	136
11.1430000000	148
11.1730000000	151
11.2030000000	169
11.2330000000	154
11.2630000000	134
11.2930000000	149
11.3230000000	152
11.3530000000	157
11.3830000000	172
11.4130000000	154
11.4430000000	154
11.4730000000	159
11.5030000000	151
11.5330000000	173
11.5630000000	136
11.5930000000	141
11.6230000000	150
11.6530000000	166
11.6830000000	162
11.7130000000	146
11.7430000000	135
11.7730000000	153
11.8030000000	130
11.8330000000	140
11.8630000000	152
11.8930000000	135
11.9230000000	155
11.9530000000	137
11.9830000000	149
12.0130000000	144
12.0430000000	161
12.0730000000	160
12.1030000000	167
12.1330000000	159
12.1630000000	155
12.1930000000	172
12.2230000000	158
12.2530000000	166
12.2830000000	142
12.3130000000	136
12.3430000000	135
12.3730000000	157
12.4030000000	150
12.4330000000	142
12.4630000000	133
12.4930000000	151
12.5230000000	144
12.5530000000	153
12.5830000000	149
12.6130000000	150
12.6430000000	153
12.6730000000	131
12.7030000000	128
12.7330000000	181
12.7630000000	177
12.7930000000	138
12.8230000000	157
12.8530000000	158
12.8830000000	156
12.9130000000	158
12.9430000000	141
12.9730000000	135
13.0030000000	142
13.0330000000	138
13.0630000000	128
13.0930000000	137
13.1230000000	151
13.1530000000	151
13.1830000000	143
13.2130000000	161
13.2430000000	147
13.2730000000	163
13.3030000000	148
13.3330000000	150
13.3630000000	159
13.3930000000	160
13.4230000000	134
13.4530000000	159
13.4830000000	148
13.5130000000	146
13.5430000000	126
13.5730000000	153
13.6030000000	143
13.6330000000	136
13.6630000000	141
13.6930000000	152
13.7230000000	137
13.7530000000	131
13.7830000000	136
13.8130000000	146
13.8430000000	149
13.8730000000	150
13.9030000000	138
13.9330000000	143
13.9630000000	153
13.9930000000	149
14.0230000000	151
14.0530000000	150
14.0830000000	149
14.1130000000	143
14.1430000000	133
14.1730000000	148
14.2030000000	148
14.2330000000	145
14.2630000000	142
14.2930000000	146
14.3230000000	144
14.3530000000	128
14.3830000000	122
14.4130000000	126
14.4430000000	155
14.4730000000	141
14.5030000000	136
14.5330000000	157
14.5630000000	151
14.5930000000	148
14.6230000000	134
14.6530000000	147
14.6830000000	138
14.7130000000	166
14.7430000000	147
14.7730000000	148
14.8030000000	167
14.8330000000	155
14.8630000000	133
14.8930000000	161
14.9230000000	150
14.9530000000	157
14.9830000000	149
15.0130000000	143
15.0430000000	157
15.0730000000	119
15.1030000000	142
15.1330000000	147
15.1630000000	162
15.1930000000	172
15.2230000000	148
15.2530000000	142
15.2830000000	129
15.3130000000	137
15.3430000000	160
15.3730000000	149
15.4030000000	163
15.4330000000	161
15.4630000000	141
15.4930000000	142
15.5230000000	146
15.5530000000	135
15.5830000000	156
15.6130000000	170
15.6430000000	143
15.6730000000	138
15.7030000000	149
15.7330000000	138
15.7630000000	150
15.7930000000	138
15.8230000000	146
15.8530000000	144
15.8830000000	171
15.9130000000	140
15.9430000000	127
15.9730000000	131
16.0030000000	157
16.0330000000	124
16.0630000000	156
16.0930000000	157
16.1230000000	147
16.1530000000	149
16.1830000000	119
16.2130000000	130
16.2430000000	174
16.2730000000	131
16.3030000000	152
16.3330000000	149
16.3630000000	128
16.3930000000	120
16.4230000000	152
16.4530000000	142
16.4830000000	159
16.5130000000	138
16.5430000000	139
16.5730000000	121
16.6030000000	141
16.6330000000	170
16.6630000000	153
16.6930000000	130
16.7230000000	134
16.7530000000	129
16.7830000000	129
16.8130000000	124
16.8430000000	114
16.8730000000	139
16.9030000000	143
16.9330000000	128
16.9630000000	146
16.9930000000	144
17.0230000000	147
17.0530000000	133
17.0830000000	148
17.1130000000	145
17.1430000000	146
17.1730000000	156
17.2030000000	135
17.2330000000	151
17.2630000000	144
17.2930000000	171
17.3230000000	161
17.3530000000	153
17.3830000000	148
17.4130000000	140
17.4430000000	142
17.4730000000	132
17.5030000000	158
17.5330000000	147
17.5630000000	153
17.5930000000	153
17.6230000000	164
17.6530000000	155
17.6830000000	122
17.7130000000	134
17.7430000000	142
17.7730000000	149
17.8030000000	139
17.8330000000	129
17.8630000000	138
17.8930000000	135
17.9230000000	153
17.9530000000	162
17.9830000000	134
18.0130000000	130
18.0430000000	136
18.0730000000	124
18.1030000000	147
18.1330000000	144
18.1630000000	151
18.1930000000	138
18.2230000000	143
18.2530000000	156
18.2830000000	122
18.3130000000	142
18.3430000000	157
18.3730000000	143
18.4030000000	162
18.4330000000	139
18.4630000000	130
18.4930000000	128
18.5230000000	169
18.5530000000	143
18.5830000000	134
18.6130000000	128
18.6430000000	133
18.6730000000	146
18.7030000000	138
18.7330000000	149
18.7630000000	154
18.7930000000	152
18.8230000000	127
18.8530000000	149
18.8830000000	151
18.9130000000	157
18.9430000000	160
18.9730000000	140
19.0030000000	141
19.0330000000	140
19.0630000000	141
19.0930000000	174
19.1230000000	153
19.1530000000	156
19.1830000000	144
19.2130000000	137
19.2430000000	158
19.2730000000	165
19.3030000000	156
19.3330000000	159
19.3630000000	183
19.3930000000	185
19.4230000000	196
19.4530000000	222
19.4830000000	256
19.5130000000	326
19.5430000000	372
19.5730000000	343
19.6030000000	322
19.6330000000	267
19.6630000000	247
19.6930000000	223
19.7230000000	193
19.7530000000	170
19.7830000000	130
19.8130000000	135
19.8430000000	168
19.8730000000	117
19.9030000000	172
19.9330000000	162
19.9630000000	170
19.9930000000	156
20.0230000000	164
20.0530000000	158
20.0830000000	152
20.1130000000	137
20.1430000000	144
20.1730000000	160
20.2030000000	182
20.2330000000	150
20.2630000000	157
20.2930000000	158
20.3230000000	138
20.3530000000	128
20.3830000000	145
20.4130000000	149
20.4430000000	158
20.4730000000	158
20.5030000000	157
20.5330000000	149
20.5630000000	137
20.5930000000	146
20.6230000000	143
20.6530000000	149
20.6830000000	163
20.7130000000	136
20.7430000000	161
20.7730000000	154
20.8030000000	152
20.8330000000	168
20.8630000000	163
20.8930000000	157
20.9230000000	172
20.9530000000	159
20.9830000000	169
21.0130000000	145
21.0430000000	161
21.0730000000	169
21.1030000000	142
21.1330000000	168
21.1630000000	150
21.1930000000	164
21.2230000000	168
21.2530000000	162
21.2830000000	137
21.3130000000	173
21.3430000000	173
21.3730000000	170
21.4030000000	142
21.4330000000	151
21.4630000000	164
21.4930000000	167
21.5230000000	172
21.5530000000	179
21.5830000000	159
21.6130000000	168
21.6430000000	161
21.6730000000	156
21.7030000000	168
21.7330000000	147
21.7630000000	141
21.7930000000	165
21.8230000000	165
21.8530000000	159
21.8830000000	177
21.9130000000	144
21.9430000000	150
21.9730000000	161
22.0030000000	179
22.0330000000	203
22.0630000000	149
22.0930000000	141
22.1230000000	151
22.1530000000	166
22.1830000000	156
22.2130000000	154
22.2430000000	165
22.2730000000	149
22.3030000000	165
22.3330000000	168
22.3630000000	147
22.3930000000	157
22.4230000000	175
22.4530000000	181
22.4830000000	174
22.5130000000	169
22.5430000000	181
22.5730000000	180
22.6030000000	178
22.6330000000	194
22.6630000000	202
22.6930000000	223
22.7230000000	269
22.7530000000	249
22.7830000000	210
22.8130000000	230
22.8430000000	184
22.8730000000	164
22.9030000000	180
22.9330000000	191
22.9630000000	155
22.9930000000	155
23.0230000000	167
23.0530000000	179
23.0830000000	151
23.1130000000	164
23.1430000000	157
23.1730000000	180
23.2030000000	176
23.2330000000	156
23.2630000000	174
23.2930000000	146
23.3230000000	146
23.3530000000	177
23.3830000000	186
23.4130000000	147
23.4430000000	163
23.4730000000	181
23.5030000000	150
23.5330000000	138
23.5630000000	143
23.5930000000	175
23.6230000000	177
23.6530000000	166
23.6830000000	169
23.7130000000	179
23.7430000000	160
23.7730000000	137
23.8030000000	171
23.8330000000	168
23.8630000000	175
23.8930000000	167
23.9230000000	173
23.9530000000	168
23.9830000000	187
24.0130000000	157
24.0430000000	149
24.0730000000	158
24.1030000000	180
24.1330000000	156
24.1630000000	169
24.1930000000	161
24.2230000000	158
24.2530000000	182
24.2830000000	170
24.3130000000	196
24.3430000000	189
24.3730000000	155
24.4030000000	175
24.4330000000	162
24.4630000000	144
24.4930000000	159
24.5230000000	162
24.5530000000	178
24.5830000000	165
24.6130000000	185
24.6430000000	154
24.6730000000	183
24.7030000000	173
24.7330000000	147
24.7630000000	160
24.7930000000	159
24.8230000000	162
24.8530000000	181
24.8830000000	150
24.9130000000	167
24.9430000000	183
24.9730000000	178
25.0030000000	165
25.0330000000	156
25.0630000000	160
25.0930000000	176
25.1230000000	175
25.1530000000	167
25.1830000000	178
25.2130000000	165
25.2430000000	163
25.2730000000	153
25.3030000000	139
25.3330000000	173
25.3630000000	179
25.3930000000	170
25.4230000000	162
25.4530000000	175
25.4830000000	157
25.5130000000	157
25.5430000000	183
25.5730000000	191
25.6030000000	164
25.6330000000	205
25.6630000000	184
25.6930000000	164
25.7230000000	158
25.7530000000	161
25.7830000000	172
25.8130000000	151
25.8430000000	163
25.8730000000	167
25.9030000000	187
25.9330000000	198
25.9630000000	153
25.9930000000	153
26.0230000000	161
26.0530000000	161
26.0830000000	183
26.1130000000	175
26.1430000000	181
26.1730000000	182
26.2030000000	209
26.2330000000	255
26.2630000000	312
26.2930000000	438
26.3230000000	531
26.3530000000	673
26.3830000000	877
26.4130000000	988
26.4430000000	943
26.4730000000	752
26.5030000000	549
26.5330000000	409
26.5630000000	308
26.5930000000	256
26.6230000000	256
26.6530000000	224
26.6830000000	195
26.7130000000	195
26.7430000000	189
26.7730000000	178
26.8030000000	177
26.8330000000	167
26.8630000000	151
26.8930000000	154
26.9230000000	150
26.9530000000	138
26.9830000000	166
27.0130000000	172
27.0430000000	151
27.0730000000	156
27.1030000000	141
27.1330000000	127
27.1630000000	144
27.1930000000	171
27.2230000000	179
27.2530000000	143
27.2830000000	149
27.3130000000	165
27.3430000000	143
27.3730000000	157
27.4030000000	152
27.4330000000	139
27.4630000000	132
27.4930000000	141
27.5230000000	134
27.5530000000	126
27.5830000000	136
27.6130000000	130
27.6430000000	167
27.6730000000	137
27.7030000000	140
27.7330000000	133
27.7630000000	144
27.7930000000	125
27.8230000000	156
27.8530000000	147
27.8830000000	136
27.9130000000	161
27.9430000000	138
27.9730000000	151
28.0030000000	157
28.0330000000	151
28.0630000000	160
28.0930000000	144
28.1230000000	152
28.1530000000	146
28.1830000000	161
28.2130000000	137
28.2430000000	126
28.2730000000	141
28.3030000000	153
28.3330000000	150
28.3630000000	140
28.3930000000	150
28.4230000000	130
28.4530000000	152
28.4830000000	155
28.5130000000	146
28.5430000000	144
28.5730000000	151
28.6030000000	153
28.6330000000	142
28.6630000000	151
28.6930000000	161
28.7230000000	153
28.7530000000	150
28.7830000000	159
28.8130000000	159
28.8430000000	166
28.8730000000	178
28.9030000000	153
28.9330000000	143
28.9630000000	143
28.9930000000	134
29.0230000000	156
29.0530000000	146
29.0830000000	154
29.1130000000	165
29.1430000000	123
29.1730000000	143
29.2030000000	159
29.2330000000	141
29.2630000000	151
29.2930000000	132
29.3230000000	112
29.3530000000	148
29.3830000000	137
29.4130000000	148
29.4430000000	146
29.4730000000	137
29.5030000000	115
29.5330000000	125
29.5630000000	125
29.5930000000	143
29.6230000000	121
29.6530000000	140
29.6830000000	124
29.7130000000	141
29.7430000000	148
29.7730000000	123
29.8030000000	155
29.8330000000	137
29.8630000000	157
29.8930000000	144
29.9230000000	132
29.9530000000	144
29.9830000000	144
30.0130000000	135
30.0430000000	152
30.0730000000	158
30.1030000000	180
30.1330000000	207
30.1630000000	239
30.1930000000	289
30.2230000000	431
30.2530000000	640
30.2830000000	885
30.3130000000	1400
30.3430000000	2073
30.3730000000	2613
30.4030000000	2946
30.4330000000	2552
30.4630000000	1902
30.4930000000	1368
30.5230000000	888
30.5530000000	533
30.5830000000	387
30.6130000000	306
30.6430000000	241
30.6730000000	159
30.7030000000	186
30.7330000000	142
30.7630000000	149
30.7930000000	135
30.8230000000	150
30.8530000000	152
30.8830000000	141
30.9130000000	135
30.9430000000	134
30.9730000000	130
31.0030000000	120
31.0330000000	114
31.0630000000	134
31.0930000000	147
31.1230000000	138
31.1530000000	148
31.1830000000	129
31.2130000000	139
31.2430000000	143
31.2730000000	119
31.3030000000	148
31.3330000000	139
31.3630000000	134
31.3930000000	125
31.4230000000	148
31.4530000000	121
31.4830000000	134
31.5130000000	143
31.5430000000	137
31.5730000000	166
31.6030000000	150
31.6330000000	157
31.6630000000	212
31.6930000000	254
31.7230000000	379
31.7530000000	541
31.7830000000	687
31.8130000000	1071
31.8430000000	1512
31.8730000000	1754
31.9030000000	1755
31.9330000000	1428
31.9630000000	1152
31.9930000000	1003
32.0230000000	1002
32.0530000000	1040
32.0830000000	1162
32.1130000000	1184
32.1430000000	1144
32.1730000000	906
32.2030000000	696
32.2330000000	470
32.2630000000	329
32.2930000000	258
32.3230000000	204
32.3530000000	154
32.3830000000	149
32.4130000000	133
32.4430000000	116
32.4730000000	121
32.5030000000	126
32.5330000000	103
32.5630000000	115
32.5930000000	136
32.6230000000	133
32.6530000000	141
32.6830000000	122
32.7130000000	118
32.7430000000	121
32.7730000000	123
32.8030000000	102
32.8330000000	112
32.8630000000	106
32.8930000000	119
32.9230000000	115
32.9530000000	103
32.9830000000	117
33.0130000000	129
33.0430000000	114
33.0730000000	117
33.1030000000	111
33.1330000000	106
33.1630000000	118
33.1930000000	114
33.2230000000	132
33.2530000000	147
33.2830000000	135
33.3130000000	134
33.3430000000	102
33.3730000000	123
33.4030000000	115
33.4330000000	95
33.4630000000	110
33.4930000000	106
33.5230000000	107
33.5530000000	116
33.5830000000	95
33.6130000000	88
33.6430000000	95
33.6730000000	98
33.7030000000	109
33.7330000000	111
33.7630000000	111
33.7930000000	101
33.8230000000	99
33.8530000000	81
33.8830000000	102
33.9130000000	107
33.9430000000	94
33.9730000000	96
34.0030000000	106
34.0330000000	101
34.0630000000	113
34.0930000000	112
34.1230000000	93
34.1530000000	91
34.1830000000	91
34.2130000000	107
34.2430000000	107
34.2730000000	107
34.3030000000	95
34.3330000000	89
34.3630000000	96
34.3930000000	110
34.4230000000	93
34.4530000000	93
34.4830000000	91
34.5130000000	98
34.5430000000	104
34.5730000000	109
34.6030000000	106
34.6330000000	90
34.6630000000	101
34.6930000000	95
34.7230000000	85
34.7530000000	88
34.7830000000	104
34.8130000000	98
34.8430000000	98
34.8730000000	119
34.9030000000	105
34.9330000000	100
34.9630000000	111
34.9930000000	104
35.0230000000	109
35.0530000000	101
35.0830000000	93
35.1130000000	100
35.1430000000	98
35.1730000000	144
35.2030000000	156
35.2330000000	180
35.2630000000	209
35.2930000000	244
35.3230000000	267
35.3530000000	271
35.3830000000	257
35.4130000000	213
35.4430000000	169
35.4730000000	144
35.5030000000	115
35.5330000000	85
35.5630000000	106
35.5930000000	108
35.6230000000	93
35.6530000000	118
35.6830000000	101
35.7130000000	83
35.7430000000	105
35.7730000000	94
35.8030000000	99
35.8330000000	104
35.8630000000	92
35.8930000000	99
35.9230000000	111
35.9530000000	96
35.9830000000	87
36.0130000000	96
36.0430000000	91
36.0730000000	93
36.1030000000	88
36.1330000000	88
36.1630000000	99
36.1930000000	92
36.2230000000	90
36.2530000000	88
36.2830000000	82
36.3130000000	107
36.3430000000	101
36.3730000000	104
36.4030000000	124
36.4330000000	117
36.4630000000	138
36.4930000000	154
36.5230000000	183
36.5530000000	293
36.5830000000	341
36.6130000000	398
36.6430000000	423
36.6730000000	404
36.7030000000	366
36.7330000000	283
36.7630000000	213
36.7930000000	167
36.8230000000	152
36.8530000000	118
36.8830000000	96
36.9130000000	96
36.9430000000	100
36.9730000000	94
37.0030000000	100
37.0330000000	99
37.0630000000	83
37.0930000000	106
37.1230000000	91
37.1530000000	103
37.1830000000	90
37.2130000000	99
37.2430000000	94
37.2730000000	81
37.3030000000	79
37.3330000000	89
37.3630000000	92
37.3930000000	83
37.4230000000	107
37.4530000000	100
37.4830000000	93
37.5130000000	82
37.5430000000	107
37.5730000000	103
37.6030000000	97
37.6330000000	95
37.6630000000	94
37.6930000000	80
37.7230000000	82
37.7530000000	94
37.7830000000	94
37.8130000000	84
37.8430000000	80
37.8730000000	85
37.9030000000	89
37.9330000000	95
37.9630000000	87
37.9930000000	86
38.0230000000	85
38.0530000000	84
38.0830000000	93
38.1130000000	91
38.1430000000	90
38.1730000000	87
38.2030000000	77
38.2330000000	85
38.2630000000	84
38.2930000000	78
38.3230000000	76
38.3530000000	80
38.3830000000	90
38.4130000000	89
38.4430000000	100
38.4730000000	100
38.5030000000	82
38.5330000000	101
38.5630000000	94
38.5930000000	93
38.6230000000	88
38.6530000000	78
38.6830000000	84
38.7130000000	101
38.7430000000	104
38.7730000000	85
38.8030000000	93
38.8330000000	99
38.8630000000	98
38.8930000000	106
38.9230000000	92
38.9530000000	92
38.9830000000	97
39.0130000000	86
39.0430000000	89
39.0730000000	84
39.1030000000	102
39.1330000000	99
39.1630000000	89
39.1930000000	89
39.2230000000	103
39.2530000000	110
39.2830000000	85
39.3130000000	86
39.3430000000	94
39.3730000000	96
39.4030000000	91
39.4330000000	109
39.4630000000	120
39.4930000000	128
39.5230000000	168
39.5530000000	227
39.5830000000	311
39.6130000000	426
39.6430000000	645
39.6730000000	910
39.7030000000	1134
39.7330000000	1225
39.7630000000	1215
39.7930000000	999
39.8230000000	772
39.8530000000	555
39.8830000000	367
39.9130000000	228
39.9430000000	190
39.9730000000	131
40.0030000000	111
40.0330000000	91
40.0630000000	97
40.0930000000	100
40.1230000000	97
40.1530000000	106
40.1830000000	88
40.2130000000	93
40.2430000000	93
40.2730000000	81
40.3030000000	110
40.3330000000	95
40.3630000000	97
40.3930000000	82
40.4230000000	81
40.4530000000	79
40.4830000000	75
40.5130000000	84
40.5430000000	83
40.5730000000	98
40.6030000000	66
40.6330000000	92
40.6630000000	84
40.6930000000	74
40.7230000000	66
40.7530000000	96
40.7830000000	79
40.8130000000	79
40.8430000000	74
40.8730000000	88
40.9030000000	84
40.9330000000	102
40.9630000000	81
40.9930000000	93
41.0230000000	87
41.0530000000	85
41.0830000000	86
41.1130000000	94
41.1430000000	85
41.1730000000	81
41.2030000000	77
41.2330000000	64
41.2630000000	82
41.2930000000	83
41.3230000000	91
41.3530000000	81
41.3830000000	89
41.4130000000	82
41.4430000000	86
41.4730000000	101
41.5030000000	84
41.5330000000	91
41.5630000000	93
41.5930000000	79
41.6230000000	90
41.6530000000	87
41.6830000000	95
41.7130000000	78
41.7430000000	75
41.7730000000	92
41.8030000000	90
41.8330000000	72
41.8630000000	82
41.8930000000	84
41.9230000000	71
41.9530000000	69
41.9830000000	86
42.0130000000	96
42.0430000000	79
42.0730000000	74
42.1030000000	82
42.1330000000	70
42.1630000000	80
42.1930000000	91
42.2230000000	70
42.2530000000	75
42.2830000000	81
42.3130000000	92
42.3430000000	78
42.3730000000	76
42.4030000000	79
42.4330000000	80
42.4630000000	71
42.4930000000	76
42.5230000000	84
42.5530000000	79
42.5830000000	69
42.6130000000	68
42.6430000000	93
42.6730000000	89
42.7030000000	85
42.7330000000	100
42.7630000000	91
42.7930000000	80
42.8230000000	99
42.8530000000	116
42.8830000000	108
42.9130000000	128
42.9430000000	138
42.9730000000	166
43.0030000000	239
43.0330000000	340
43.0630000000	502
43.0930000000	701
43.1230000000	953
43.1530000000	1216
43.1830000000	1276
43.2130000000	1210
43.2430000000	995
43.2730000000	739
43.3030000000	549
43.3330000000	364
43.3630000000	245
43.3930000000	191
43.4230000000	143
43.4530000000	104
43.4830000000	115
43.5130000000	105
43.5430000000	86
43.5730000000	83
43.6030000000	101
43.6330000000	120
43.6630000000	111
43.6930000000	119
43.7230000000	112
43.7530000000	120
43.7830000000	110
43.8130000000	108
43.8430000000	105
43.8730000000	78
43.9030000000	80
43.9330000000	87
43.9630000000	77
43.9930000000	89
44.0230000000	88
44.0530000000	83
44.0830000000	70
44.1130000000	70
44.1430000000	81
44.1730000000	98
44.2030000000	69
44.2330000000	82
44.2630000000	86
44.2930000000	68
44.3230000000	75
44.3530000000	77
44.3830000000	84
44.4130000000	68
44.4430000000	57
44.4730000000	81
44.5030000000	84
44.5330000000	82
44.5630000000	69
44.5930000000	72
44.6230000000	79
44.6530000000	85
44.6830000000	81
44.7130000000	65
44.7430000000	101
44.7730000000	77
44.8030000000	83
44.8330000000	100
44.8630000000	129
44.8930000000	212
44.9230000000	235
44.9530000000	323
44.9830000000	453
45.0130000000	604
45.0430000000	742
45.0730000000	827
45.1030000000	774
45.1330000000	618
45.1630000000	516
45.1930000000	371
45.2230000000	237
45.2530000000	175
45.2830000000	144
45.3130000000	122
45.3430000000	93
45.3730000000	88
45.4030000000	84
45.4330000000	71
45.4630000000	73
45.4930000000	83
45.5230000000	80
45.5530000000	65
45.5830000000	66
45.6130000000	83
45.6430000000	71
45.6730000000	49
45.7030000000	60
45.7330000000	70
45.7630000000	65
45.7930000000	68
45.8230000000	56
45.8530000000	67
45.8830000000	79
45.9130000000	90
45.9430000000	85
45.9730000000	113
46.0030000000	147
46.0330000000	176
46.0630000000	211
46.0930000000	203
46.1230000000	207
46.1530000000	187
46.1830000000	149
46.2130000000	136
46.2430000000	123
46.2730000000	89
46.3030000000	108
46.3330000000	98
46.3630000000	87
46.3930000000	113
46.4230000000	111
46.4530000000	101
46.4830000000	116
46.5130000000	110
46.5430000000	113
46.5730000000	95
46.6030000000	84
46.6330000000	87
46.6630000000	79
46.6930000000	77
46.7230000000	80
46.7530000000	89
46.7830000000	75
46.8130000000	92
46.8430000000	125
46.8730000000	161
46.9030000000	210
46.9330000000	248
46.9630000000	300
46.9930000000	239
47.0230000000	205
47.0530000000	201
47.0830000000	154
47.1130000000	137
47.1430000000	95
47.1730000000	80
47.2030000000	76
47.2330000000	67
47.2630000000	89
47.2930000000	71
47.3230000000	73
47.3530000000	71
47.3830000000	78
47.4130000000	81
47.4430000000	73
47.4730000000	89
47.5030000000	107
47.5330000000	94
47.5630000000	83
47.5930000000	82
47.6230000000	77
47.6530000000	78
47.6830000000	93
47.7130000000	65
47.7430000000	70
47.7730000000	67
47.8030000000	74
47.8330000000	60
47.8630000000	58
47.8930000000	57
47.9230000000	74
47.9530000000	52
47.9830000000	52
48.0130000000	55
48.0430000000	55
48.0730000000	58
48.1030000000	70
48.1330000000	58
48.1630000000	55
48.1930000000	49
48.2230000000	46
48.2530000000	58
48.2830000000	54
48.3130000000	55
48.3430000000	54
48.3730000000	49
48.4030000000	54
48.4330000000	57
48.4630000000	62
48.4930000000	57
48.5230000000	59
48.5530000000	62
48.5830000000	64
48.6130000000	50
48.6430000000	58
48.6730000000	53
48.7030000000	59
48.7330000000	60
48.7630000000	44
48.7930000000	55
48.8230000000	58
48.8530000000	53
48.8830000000	60
48.9130000000	62
48.9430000000	60
48.9730000000	52
49.0030000000	57
49.0330000000	65
49.0630000000	46
49.0930000000	54
49.1230000000	46
49.1530000000	49
49.1830000000	49
49.2130000000	46
49.2430000000	57
49.2730000000	50
49.3030000000	53
49.3330000000	62
49.3630000000	45
49.3930000000	50
49.4230000000	61
49.4530000000	59
49.4830000000	49
49.5130000000	54
49.5430000000	52
49.5730000000	59
49.6030000000	58
49.6330000000	63
49.6630000000	57
49.6930000000	61
49.7230000000	55
49.7530000000	65
49.7830000000	52
49.8130000000	44
49.8430000000	56
49.8730000000	45
49.9030000000	42
49.9330000000	38
49.9630000000	54
49.9930000000	66
50.0230000000	52
50.0530000000	59
50.0830000000	58
50.1130000000	54
50.1430000000	58
50.1730000000	55
50.2030000000	74
50.2330000000	58
50.2630000000	60
50.2930000000	64
50.3230000000	55
50.3530000000	52
50.3830000000	69
50.4130000000	82
50.4430000000	94
50.4730000000	86
50.5030000000	79
50.5330000000	97
50.5630000000	85
50.5930000000	69
50.6230000000	75
50.6530000000	74
50.6830000000	47
50.7130000000	58
50.7430000000	60
50.7730000000	56
50.8030000000	49
50.8330000000	57
50.8630000000	69
50.8930000000	60
50.9230000000	50
50.9530000000	46
50.9830000000	51
51.0130000000	62
51.0430000000	66
51.0730000000	56
51.1030000000	57
51.1330000000	55
51.1630000000	45
51.1930000000	57
51.2230000000	59
51.2530000000	48
51.2830000000	43
51.3130000000	44
51.3430000000	44
51.3730000000	48
51.4030000000	52
51.4330000000	61
51.4630000000	64
51.4930000000	44
51.5230000000	56
51.5530000000	47
51.5830000000	49
51.6130000000	51
51.6430000000	47
51.6730000000	52
51.7030000000	47
51.7330000000	45
51.7630000000	56
51.7930000000	34
51.8230000000	43
51.8530000000	51
51.8830000000	45
51.9130000000	50
51.9430000000	57
51.9730000000	44
52.0030000000	60
52.0330000000	62
52.0630000000	63
52.0930000000	76
52.1230000000	79
52.1530000000	79
52.1830000000	98
52.2130000000	90
52.2430000000	88
52.2730000000	58
52.3030000000	46
52.3330000000	68
52.3630000000	54
52.3930000000	53
52.4230000000	60
52.4530000000	43
52.4830000000	47
52.5130000000	53
52.5430000000	56
52.5730000000	50
52.6030000000	52
52.6330000000	49
52.6630000000	47
52.6930000000	51
52.7230000000	51
52.7530000000	45
52.7830000000	54
52.8130000000	34
52.8430000000	53
52.8730000000	55
52.9030000000	49
52.9330000000	50
52.9630000000	58
52.9930000000	43
53.0230000000	45
53.0530000000	40
53.0830000000	49
53.1130000000	43
53.1430000000	51
53.1730000000	57
53.2030000000	48
53.2330000000	39
53.2630000000	52
53.2930000000	53
53.3230000000	49
53.3530000000	65
53.3830000000	65
53.4130000000	49
53.4430000000	60
53.4730000000	56
53.5030000000	55
53.5330000000	66
53.5630000000	61
53.5930000000	57
53.6230000000	55
53.6530000000	57
53.6830000000	59
53.7130000000	72
53.7430000000	61
53.7730000000	71
53.8030000000	96
53.8330000000	108
53.8630000000	141
53.8930000000	113
53.9230000000	108
53.9530000000	108
53.9830000000	81
54.0130000000	80
54.0430000000	70
54.0730000000	67
54.1030000000	51
54.1330000000	50
54.1630000000	53
54.1930000000	53
54.2230000000	55
54.2530000000	55
54.2830000000	52
54.3130000000	52
54.3430000000	44
54.3730000000	50
54.4030000000	58
54.4330000000	48
54.4630000000	61
54.4930000000	54
54.5230000000	63
54.5530000000	50
54.5830000000	56
54.6130000000	44
54.6430000000	49
54.6730000000	43
54.7030000000	46
54.7330000000	47
54.7630000000	58
54.7930000000	60
54.8230000000	53
54.8530000000	85
54.8830000000	76
54.9130000000	105
54.9430000000	109
54.9730000000	125
55.0030000000	132
55.0330000000	91
55.0630000000	105
55.0930000000	99
55.1230000000	60
55.1530000000	72
55.1830000000	56
55.2130000000	60
55.2430000000	57
55.2730000000	67
55.3030000000	73
55.3330000000	89
55.3630000000	84
55.3930000000	94
55.4230000000	119
55.4530000000	121
55.4830000000	125
55.5130000000	107
55.5430000000	98
55.5730000000	92
55.6030000000	90
55.6330000000	88
55.6630000000	71
55.6930000000	63
55.7230000000	65
55.7530000000	52
55.7830000000	49
55.8130000000	55
55.8430000000	60
55.8730000000	55
55.9030000000	50
55.9330000000	45
55.9630000000	56
55.9930000000	59
56.0230000000	40
56.0530000000	53
56.0830000000	45
56.1130000000	49
56.1430000000	55
56.1730000000	46
56.2030000000	62
56.2330000000	46
56.2630000000	37
56.2930000000	60
56.3230000000	51
56.3530000000	48
56.3830000000	42
56.4130000000	48
56.4430000000	55
56.4730000000	38
56.5030000000	54
56.5330000000	48
56.5630000000	48
56.5930000000	45
56.6230000000	38
56.6530000000	47
56.6830000000	49
56.7130000000	57
56.7430000000	37
56.7730000000	53
56.8030000000	45
56.8330000000	39
56.8630000000	48
56.8930000000	50
56.9230000000	48
56.9530000000	54
56.9830000000	42
57.0130000000	39
57.0430000000	48
57.0730000000	59
57.1030000000	57
57.1330000000	49
57.1630000000	48
57.1930000000	41
57.2230000000	42
57.2530000000	56
57.2830000000	51
57.3130000000	44
57.3430000000	40
57.3730000000	51
57.4030000000	50
57.4330000000	52
57.4630000000	37
57.4930000000	38
57.5230000000	50
57.5530000000	44
57.5830000000	50
57.6130000000	42
57.6430000000	38
57.6730000000	47
57.7030000000	58
57.7330000000	43
57.7630000000	46
57.7930000000	52
57.8230000000	51
57.8530000000	41
57.8830000000	41
57.9130000000	37
57.9430000000	52
57.9730000000	52
58.0030000000	52
58.0330000000	43
58.0630000000	48
58.0930000000	49
58.1230000000	55
58.1530000000	56
58.1830000000	51
58.2130000000	59
58.2430000000	47
58.2730000000	47
58.3030000000	59
58.3330000000	44
58.3630000000	45
58.3930000000	45
58.4230000000	35
58.4530000000	44
58.4830000000	41
58.5130000000	43
58.5430000000	43
58.5730000000	43
58.6030000000	42
58.6330000000	43
58.6630000000	46
58.6930000000	36
58.7230000000	57
58.7530000000	39
58.7830000000	41
58.8130000000	34
58.8430000000	47
58.8730000000	52
58.9030000000	49
58.9330000000	53
58.9630000000	42
58.9930000000	42
59.0230000000	51
59.0530000000	41
59.0830000000	47
59.1130000000	40
59.1430000000	38
59.1730000000	45
59.2030000000	44
59.2330000000	51
59.2630000000	49
59.2930000000	41
59.3230000000	46
59.3530000000	44
59.3830000000	33
59.4130000000	37
59.4430000000	59
59.4730000000	41
59.5030000000	48
59.5330000000	42
59.5630000000	51
59.5930000000	58
59.6230000000	46
59.6530000000	45
59.6830000000	51
59.7130000000	46
59.7430000000	55
59.7730000000	37
59.8030000000	41
59.8330000000	38
59.8630000000	54
59.8930000000	37
59.9230000000	55
59.9530000000	35
59.9830000000	47
60.0130000000	51
60.0430000000	58
60.0730000000	59
60.1030000000	84
60.1330000000	98
60.1630000000	119
60.1930000000	121
60.2230000000	135
60.2530000000	159
60.2830000000	112
60.3130000000	121
60.3430000000	98
60.3730000000	80
60.4030000000	68
60.4330000000	67
60.4630000000	49
60.4930000000	49
60.5230000000	41
60.5530000000	55
60.5830000000	54
60.6130000000	47
60.6430000000	58
60.6730000000	50
60.7030000000	45
60.7330000000	47
60.7630000000	51
60.7930000000	48
60.8230000000	52
60.8530000000	32
60.8830000000	28
60.9130000000	40
60.9430000000	49
60.9730000000	36
61.0030000000	52
61.0330000000	49
61.0630000000	39
61.0930000000	45
61.1230000000	46
61.1530000000	61
61.1830000000	69
61.2130000000	56
61.2430000000	65
61.2730000000	61
61.3030000000	73
61.3330000000	66
61.3630000000	66
61.3930000000	68
61.4230000000	71
61.4530000000	83
61.4830000000	105
61.5130000000	97
61.5430000000	110
61.5730000000	116
61.6030000000	116
61.6330000000	92
61.6630000000	95
61.6930000000	86
61.7230000000	77
61.7530000000	80
61.7830000000	52
61.8130000000	50
61.8430000000	53
61.8730000000	49
61.9030000000	50
61.9330000000	28
61.9630000000	43
61.9930000000	53
62.0230000000	43
62.0530000000	56
62.0830000000	50
62.1130000000	36
62.1430000000	48
62.1730000000	45
62.2030000000	34
62.2330000000	37
62.2630000000	43
62.2930000000	44
62.3230000000	45
62.3530000000	42
62.3830000000	54
62.4130000000	46
62.4430000000	51
62.4730000000	46
62.5030000000	39
62.5330000000	35
62.5630000000	34
62.5930000000	42
62.6230000000	36
62.6530000000	39
62.6830000000	47
62.7130000000	41
62.7430000000	40
62.7730000000	48
62.8030000000	42
62.8330000000	45
62.8630000000	40
62.8930000000	45
62.9230000000	36
62.9530000000	40
62.9830000000	36
63.0130000000	43
63.0430000000	35
63.0730000000	40
63.1030000000	39
63.1330000000	37
63.1630000000	46
63.1930000000	53
63.2230000000	50
63.2530000000	46
63.2830000000	49
63.3130000000	51
63.3430000000	55
63.3730000000	50
63.4030000000	37
63.4330000000	47
63.4630000000	55
63.4930000000	53
63.5230000000	56
63.5530000000	43
63.5830000000	47
63.6130000000	36
63.6430000000	45
63.6730000000	39
63.7030000000	51
63.7330000000	47
63.7630000000	43
63.7930000000	50
63.8230000000	46
63.8530000000	44
63.8830000000	46
63.9130000000	46
63.9430000000	30
63.9730000000	40
64.0030000000	41
64.0330000000	47
64.0630000000	49
64.0930000000	41
64.1230000000	41
64.1530000000	39
64.1830000000	40
64.2130000000	41
64.2430000000	26
64.2730000000	32
64.3030000000	44
64.3330000000	45
64.3630000000	43
64.3930000000	48
64.4230000000	40
64.4530000000	42
64.4830000000	45
64.5130000000	49
64.5430000000	36
64.5730000000	56
64.6030000000	42
64.6330000000	48
64.6630000000	45
64.6930000000	53
64.7230000000	50
64.7530000000	50
64.7830000000	55
64.8130000000	48
64.8430000000	36
64.8730000000	45
64.9030000000	32
64.9330000000	45
64.9630000000	38
64.9930000000	42
65.0230000000	45
65.0530000000	33
65.0830000000	48
65.1130000000	40
65.1430000000	43
65.1730000000	35
65.2030000000	52
65.2330000000	36
65.2630000000	48
65.2930000000	45
65.3230000000	32
65.3530000000	38
65.3830000000	50
65.4130000000	37
65.4430000000	26
65.4730000000	42
65.5030000000	40
65.5330000000	44
65.5630000000	37
65.5930000000	44
65.6230000000	42
65.6530000000	32
65.6830000000	31
65.7130000000	45
65.7430000000	36
65.7730000000	45
65.8030000000	44
65.8330000000	59
65.8630000000	46
65.8930000000	60
65.9230000000	38
65.9530000000	50
65.9830000000	46
66.0130000000	59
66.0430000000	57
66.0730000000	82
66.1030000000	81
66.1330000000	104
66.1630000000	131
66.1930000000	162
66.2230000000	190
66.2530000000	155
66.2830000000	149
66.3130000000	119
66.3430000000	123
66.3730000000	125
66.4030000000	103
66.4330000000	73
66.4630000000	64
66.4930000000	67
66.5230000000	62
66.5530000000	55
66.5830000000	51
66.6130000000	47
66.6430000000	55
66.6730000000	68
66.7030000000	41
66.7330000000	43
66.7630000000	52
66.7930000000	45
66.8230000000	45
66.8530000000	50
66.8830000000	41
66.9130000000	37
66.9430000000	40
66.9730000000	41
67.0030000000	41
67.0330000000	44
67.0630000000	43
67.0930000000	30
67.1230000000	43
67.1530000000	39
67.1830000000	38
67.2130000000	55
67.2430000000	51
67.2730000000	41
67.3030000000	46
67.3330000000	42
67.3630000000	49
67.3930000000	37
67.4230000000	29
67.4530000000	37
67.4830000000	45
67.5130000000	41
67.5430000000	46
67.5730000000	43
67.6030000000	44
67.6330000000	39
67.6630000000	35
67.6930000000	40
67.7230000000	39
67.7530000000	45
67.7830000000	49
67.8130000000	42
67.8430000000	39
67.8730000000	46
67.9030000000	42
67.9330000000	30
67.9630000000	38
67.9930000000	40
68.0230000000	49
68.0530000000	38
68.0830000000	37
68.1130000000	33
68.1430000000	38
68.1730000000	39
68.2030000000	26
68.2330000000	42
68.2630000000	45
68.2930000000	44
68.3230000000	33
68.3530000000	31
68.3830000000	49
68.4130000000	34
68.4430000000	31
68.4730000000	31
68.5030000000	33
68.5330000000	49
68.5630000000	33
68.5930000000	41
68.6230000000	39
68.6530000000	35
68.6830000000	47
68.7130000000	48
68.7430000000	36
68.7730000000	41
68.8030000000	43
68.8330000000	45
68.8630000000	36
68.8930000000	41
68.9230000000	38
68.9530000000	37
68.9830000000	34
69.0130000000	39
69.0430000000	31
69.0730000000	38
69.1030000000	45
69.1330000000	46
69.1630000000	60
69.1930000000	49
69.2230000000	51
69.2530000000	53
69.2830000000	48
69.3130000000	36
69.3430000000	56
69.3730000000	53
69.4030000000	44
69.4330000000	49
69.4630000000	37
69.4930000000	47
69.5230000000	49
69.5530000000	43
69.5830000000	44
69.6130000000	49
69.6430000000	48
69.6730000000	50
69.7030000000	53
69.7330000000	52
69.7630000000	31
69.7930000000	43
69.8230000000	43
69.8530000000	46
69.8830000000	49
69.9130000000	43
69.9430000000	34
69.9730000000	44
70.0030000000	37
70.0330000000	38
70.0630000000	53
70.0930000000	49
70.1230000000	53
70.1530000000	34
70.1830000000	43
70.2130000000	36
70.2430000000	38
70.2730000000	47
70.3030000000	46
70.3330000000	45
70.3630000000	47
70.3930000000	54
70.4230000000	40
70.4530000000	36
70.4830000000	34
70.5130000000	40
70.5430000000	39
70.5730000000	39
70.6030000000	49
70.6330000000	46
70.6630000000	51
70.6930000000	52
70.7230000000	40
70.7530000000	45
70.7830000000	51
70.8130000000	40
70.8430000000	37
70.8730000000	46
70.9030000000	51
70.9330000000	43
70.9630000000	38
70.9930000000	33
71.0230000000	35
71.0530000000	41
71.0830000000	43
71.1130000000	47
71.1430000000	38
71.1730000000	37
71.2030000000	38
71.2330000000	34
71.2630000000	34
71.2930000000	39
71.3230000000	35
71.3530000000	35
71.3830000000	37
71.4130000000	47
71.4430000000	46
71.4730000000	45
71.5030000000	36
71.5330000000	46
71.5630000000	50
71.5930000000	34
71.6230000000	34
71.6530000000	41
71.6830000000	46
71.7130000000	43
71.7430000000	42
71.7730000000	39
71.8030000000	40
71.8330000000	42
71.8630000000	47
71.8930000000	42
71.9230000000	55
71.9530000000	45
71.9830000000	37
72.0130000000	52
72.0430000000	62
72.0730000000	41
72.1030000000	49
72.1330000000	55
72.1630000000	70
72.1930000000	72
72.2230000000	71
72.2530000000	105
72.2830000000	109
72.3130000000	101
72.3430000000	95
72.3730000000	92
72.4030000000	102
72.4330000000	93
72.4630000000	75
72.4930000000	89
72.5230000000	71
72.5530000000	58
72.5830000000	65
72.6130000000	58
72.6430000000	47
72.6730000000	64
72.7030000000	72
72.7330000000	80
72.7630000000	97
72.7930000000	131
72.8230000000	165
72.8530000000	162
72.8830000000	155
72.9130000000	161
72.9430000000	103
72.9730000000	98
73.0030000000	126
73.0330000000	115
73.0630000000	79
73.0930000000	66
73.1230000000	77
73.1530000000	71
73.1830000000	55
73.2130000000	66
73.2430000000	61
73.2730000000	51
73.3030000000	71
73.3330000000	71
73.3630000000	47
73.3930000000	51
73.4230000000	42
73.4530000000	47
73.4830000000	55
73.5130000000	32
73.5430000000	42
73.5730000000	54
73.6030000000	43
73.6330000000	41
73.6630000000	38
73.6930000000	35
73.7230000000	41
73.7530000000	44
73.7830000000	48
73.8130000000	50
73.8430000000	46
73.8730000000	40
73.9030000000	49
73.9330000000	33
73.9630000000	46
73.9930000000	56
74.0230000000	41
74.0530000000	57
74.0830000000	38
74.1130000000	33
74.1430000000	51
74.1730000000	40
74.2030000000	44
74.2330000000	54
74.2630000000	53
74.2930000000	37
74.3230000000	47
74.3530000000	35
74.3830000000	43
74.4130000000	38
74.4430000000	50
74.4730000000	49
74.5030000000	50
74.5330000000	55
74.5630000000	53
74.5930000000	42
74.6230000000	37
74.6530000000	49
74.6830000000	56
74.7130000000	54
74.7430000000	46
74.7730000000	42
74.8030000000	60
74.8330000000	49
74.8630000000	50
74.8930000000	48
74.9230000000	48
74.9530000000	66
74.9830000000	48
75.0130000000	45
75.0430000000	51
75.0730000000	45
75.1030000000	48
75.1330000000	50
75.1630000000	44
75.1930000000	61
75.2230000000	45
75.2530000000	47
75.2830000000	44
75.3130000000	45
75.3430000000	44
75.3730000000	42
75.4030000000	37
75.4330000000	39
75.4630000000	47
75.4930000000	31
75.5230000000	43
75.5530000000	38
75.5830000000	44
75.6130000000	27
75.6430000000	43
75.6730000000	29
75.7030000000	50
75.7330000000	52
75.7630000000	38
75.7930000000	48
75.8230000000	39
75.8530000000	41
75.8830000000	44
75.9130000000	44
75.9430000000	35
75.9730000000	32
76.0030000000	36
76.0330000000	39
76.0630000000	37
76.0930000000	43
76.1230000000	49
76.1530000000	35
76.1830000000	39
76.2130000000	43
76.2430000000	37
76.2730000000	37
76.3030000000	35
76.3330000000	36
76.3630000000	40
76.3930000000	46
76.4230000000	56
76.4530000000	41
76.4830000000	38
76.5130000000	46
76.5430000000	34
76.5730000000	48
76.6030000000	41
76.6330000000	48
76.6630000000	47
76.6930000000	39
76.7230000000	39
76.7530000000	44
76.7830000000	50
76.8130000000	37
76.8430000000	37
76.8730000000	39
76.9030000000	37
76.9330000000	44
76.9630000000	37
76.9930000000	35
77.0230000000	39
77.0530000000	39
77.0830000000	41
77.1130000000	46
77.1430000000	29
77.1730000000	38
77.2030000000	36
77.2330000000	39
77.2630000000	41
77.2930000000	30
77.3230000000	47
77.3530000000	35
77.3830000000	52
77.4130000000	63
77.4430000000	65
77.4730000000	62
77.5030000000	63
77.5330000000	71
77.5630000000	57
77.5930000000	51
77.6230000000	56
77.6530000000	55
77.6830000000	54
77.7130000000	64
77.7430000000	53
77.7730000000	65
77.8030000000	45
77.8330000000	51
77.8630000000	52
77.8930000000	61
77.9230000000	61
77.9530000000	54
77.9830000000	40
78.0130000000	43
78.0430000000	53
78.0730000000	51
78.1030000000	43
78.1330000000	40
78.1630000000	43
78.1930000000	37
78.2230000000	36
78.2530000000	46
78.2830000000	43
78.3130000000	36
78.3430000000	32
78.3730000000	48
78.4030000000	24
78.4330000000	38
78.4630000000	50
78.4930000000	41
78.5230000000	37
78.5530000000	40
78.5830000000	50
78.6130000000	52
78.6430000000	51
78.6730000000	61
78.7030000000	66
78.7330000000	38
78.7630000000	50
78.7930000000	41
78.8230000000	47
78.8530000000	47
78.8830000000	46
78.9130000000	40
78.9430000000	44
78.9730000000	40
79.0030000000	29
79.0330000000	38
79.0630000000	41
79.0930000000	34
79.1230000000	36
79.1530000000	27
79.1830000000	31
79.2130000000	41
79.2430000000	38
79.2730000000	43
79.3030000000	35
79.3330000000	35
79.3630000000	46
79.3930000000	38
79.4230000000	32
79.4530000000	33
79.4830000000	28
79.5130000000	25
79.5430000000	42
79.5730000000	33
79.6030000000	30
79.6330000000	30
79.6630000000	38
79.6930000000	51
79.7230000000	41
79.7530000000	36
79.7830000000	36
79.8130000000	40
79.8430000000	56
79.8730000000	42
79.9030000000	38
79.9330000000	51
79.9630000000	33
79.9930000000	40
80.0230000000	52
80.0530000000	40
80.0830000000	49
80.1130000000	39
80.1430000000	44
80.1730000000	41
80.2030000000	42
80.2330000000	38
80.2630000000	34
80.2930000000	37
80.3230000000	40
80.3530000000	36
80.3830000000	42
80.4130000000	57
80.4430000000	47
80.4730000000	36
80.5030000000	53
80.5330000000	58
80.5630000000	69
80.5930000000	73
80.6230000000	67
80.6530000000	48
80.6830000000	54
80.7130000000	55
80.7430000000	46
80.7730000000	47
80.8030000000	47
80.8330000000	36
80.8630000000	50
80.8930000000	52
80.9230000000	42
80.9530000000	53
80.9830000000	44
81.0130000000	47
81.0430000000	31
81.0730000000	43
81.1030000000	33
81.1330000000	46
81.1630000000	32
81.1930000000	49
81.2230000000	40
81.2530000000	54
81.2830000000	34
81.3130000000	37
81.3430000000	49
81.3730000000	41
81.4030000000	52
81.4330000000	39
81.4630000000	40
81.4930000000	46
81.5230000000	35
81.5530000000	42
81.5830000000	42
81.6130000000	35
81.6430000000	43
81.6730000000	39
81.7030000000	43
81.7330000000	34
81.7630000000	40
81.7930000000	30
81.8230000000	35
81.8530000000	34
81.8830000000	43
81.9130000000	34
81.9430000000	35
81.9730000000	39
82.0030000000	39
82.0330000000	26
82.0630000000	33
82.0930000000	39
82.1230000000	47
82.1530000000	51
82.1830000000	40
82.2130000000	35
82.2430000000	44
82.2730000000	33
82.3030000000	39
82.3330000000	36
82.3630000000	31
82.3930000000	33
82.4230000000	48
82.4530000000	52
82.4830000000	34
82.5130000000	35
82.5430000000	39
82.5730000000	31
82.6030000000	44
82.6330000000	30
82.6630000000	33
82.6930000000	33
82.7230000000	41
82.7530000000	43
82.7830000000	38
82.8130000000	44
82.8430000000	44
82.8730000000	54
82.9030000000	52
82.9330000000	45
82.9630000000	44
82.9930000000	43
83.0230000000	38
83.0530000000	45
83.0830000000	41
83.1130000000	38
83.1430000000	39
83.1730000000	46
83.2030000000	42
83.2330000000	61
83.2630000000	56
83.2930000000	43
83.3230000000	54
83.3530000000	44
83.3830000000	43
83.4130000000	44
83.4430000000	48
83.4730000000	54
83.5030000000	45
83.5330000000	46
83.5630000000	42
83.5930000000	47
83.6230000000	33
83.6530000000	38
83.6830000000	39
83.7130000000	34
83.7430000000	35
83.7730000000	45
83.8030000000	32
83.8330000000	38
83.8630000000	37
83.8930000000	43
83.9230000000	42
83.9530000000	42
83.9830000000	45
84.0130000000	39
84.0430000000	52
84.0730000000	27
84.1030000000	40
84.1330000000	43
84.1630000000	36
84.1930000000	44
84.2230000000	29
84.2530000000	37
84.2830000000	46
84.3130000000	35
84.3430000000	37
84.3730000000	36
84.4030000000	34
84.4330000000	39
84.4630000000	31
84.4930000000	44
84.5230000000	53
84.5530000000	34
84.5830000000	38
84.6130000000	43
84.6430000000	42
84.6730000000	41
84.7030000000	45
84.7330000000	39
84.7630000000	36
84.7930000000	44
84.8230000000	28
84.8530000000	29
84.8830000000	29
84.9130000000	35
84.9430000000	34
84.9730000000	41
85.0030000000	42
85.0330000000	54
85.0630000000	38
85.0930000000	34
85.1230000000	39
85.1530000000	36
85.1830000000	37
85.2130000000	39
85.2430000000	35
85.2730000000	38
85.3030000000	41
85.3330000000	28
85.3630000000	42
85.3930000000	33
85.4230000000	28
85.4530000000	37
85.4830000000	36
85.5130000000	43
85.5430000000	50
85.5730000000	43
85.6030000000	42
85.6330000000	45
85.6630000000	38
85.6930000000	39
85.7230000000	45
85.7530000000	48
85.7830000000	49
85.8130000000	49
85.8430000000	44
85.8730000000	37
85.9030000000	50
85.9330000000	32
85.9630000000	31
85.9930000000	44
86.0230000000	48
86.0530000000	43
86.0830000000	46
86.1130000000	40
86.1430000000	35
86.1730000000	37
86.2030000000	40
86.2330000000	36
86.2630000000	48
86.2930000000	28
86.3230000000	37
86.3530000000	33
86.3830000000	38
86.4130000000	39
86.4430000000	34
86.4730000000	39
86.5030000000	28
86.5330000000	37
86.5630000000	43
86.5930000000	39
86.6230000000	33
86.6530000000	39
86.6830000000	30
86.7130000000	31
86.7430000000	34
86.7730000000	46
86.8030000000	60
86.8330000000	56
86.8630000000	44
86.8930000000	45
86.9230000000	47
86.9530000000	46
86.9830000000	47
87.0130000000	39
87.0430000000	32
87.0730000000	39
87.1030000000	47
87.1330000000	48
87.1630000000	39
87.1930000000	36
87.2230000000	39
87.2530000000	40
87.2830000000	41
87.3130000000	31
87.3430000000	45
87.3730000000	42
87.4030000000	36
87.4330000000	35
87.4630000000	41
87.4930000000	33
87.5230000000	38
87.5530000000	48
87.5830000000	48
87.6130000000	38
87.6430000000	45
87.6730000000	39
87.7030000000	49
87.7330000000	42
87.7630000000	41
87.7930000000	50
87.8230000000	42
87.8530000000	38
87.8830000000	38
87.9130000000	32
87.9430000000	43
87.9730000000	46
88.0030000000	41
88.0330000000	42
88.0630000000	38
88.0930000000	35
88.1230000000	40
88.1530000000	39
88.1830000000	40
88.2130000000	49
88.2430000000	48
88.2730000000	52
88.3030000000	49
88.3330000000	43
88.3630000000	42
88.3930000000	45
88.4230000000	49
88.4530000000	43
88.4830000000	43
88.5130000000	52
88.5430000000	50
88.5730000000	30
88.6030000000	53
88.6330000000	42
88.6630000000	42
88.6930000000	31
88.7230000000	40
88.7530000000	36
88.7830000000	41
88.8130000000	36
88.8430000000	39
88.8730000000	40
88.9030000000	36
88.9330000000	44
88.9630000000	34
88.9930000000	44
89.0230000000	43
89.0530000000	38
89.0830000000	36
89.1130000000	42
89.1430000000	36
89.1730000000	42
89.2030000000	41
89.2330000000	34
89.2630000000	40
89.2930000000	43
89.3230000000	43
89.3530000000	50
89.3830000000	52
89.4130000000	50
89.4430000000	62
89.4730000000	45
89.5030000000	50
89.5330000000	54
89.5630000000	59
89.5930000000	53
89.6230000000	49
89.6530000000	51
89.6830000000	36
89.7130000000	39
89.7430000000	53
89.7730000000	46
89.8030000000	44
89.8330000000	41
89.8630000000	32
89.8930000000	35
89.9230000000	25
89.9530000000	39
89.9830000000	42
90.0130000000	33
90.0430000000	42
90.0730000000	34
90.1030000000	33
90.1330000000	36
90.1630000000	41
90.1930000000	34
90.2230000000	29
90.2530000000	35
90.2830000000	46
90.3130000000	32
90.3430000000	36
90.3730000000	37
90.4030000000	30
90.4330000000	40
90.4630000000	48
90.4930000000	40
90.5230000000	48
90.5530000000	49
90.5830000000	36
90.6130000000	42
90.6430000000	48
90.6730000000	37
90.7030000000	31
90.7330000000	38
90.7630000000	29
90.7930000000	36
90.8230000000	34
90.8530000000	35
90.8830000000	32
90.9130000000	40
90.9430000000	41
90.9730000000	38
91.0030000000	44
91.0330000000	33
91.0630000000	30
91.0930000000	42
91.1230000000	39
91.1530000000	44
91.1830000000	51
91.2130000000	41
91.2430000000	41
91.2730000000	32
91.3030000000	35
91.3330000000	45
91.3630000000	43
91.3930000000	47
91.4230000000	48
91.4530000000	42
91.4830000000	36
91.5130000000	40
91.5430000000	34
91.5730000000	34
91.6030000000	38
91.6330000000	38
91.6630000000	39
91.6930000000	34
91.7230000000	27
91.7530000000	37
91.7830000000	42
91.8130000000	45
91.8430000000	43
91.8730000000	37
91.9030000000	38
91.9330000000	35
91.9630000000	40
91.9930000000	41
92.0230000000	43
92.0530000000	38
92.0830000000	50
92.1130000000	40
92.1430000000	37
92.1730000000	36
92.2030000000	41
92.2330000000	55
92.2630000000	32
92.2930000000	37
92.3230000000	41
92.3530000000	51
92.3830000000	36
92.4130000000	30
92.4430000000	49
92.4730000000	33
92.5030000000	31
92.5330000000	25
92.5630000000	36
92.5930000000	26
92.6230000000	40
92.6530000000	45
92.6830000000	42
92.7130000000	39
92.7430000000	40
92.7730000000	34
92.8030000000	37
92.8330000000	37
92.8630000000	39
92.8930000000	39
92.9230000000	35
92.9530000000	38
92.9830000000	41
93.0130000000	31
93.0430000000	46
93.0730000000	35
93.1030000000	30
93.1330000000	39
93.1630000000	43
93.1930000000	42
93.2230000000	34
93.2530000000	40
93.2830000000	53
93.3130000000	43
93.3430000000	29
93.3730000000	37
93.4030000000	38
93.4330000000	31
93.4630000000	39
93.4930000000	44
93.5230000000	34
93.5530000000	42
93.5830000000	34
93.6130000000	44
93.6430000000	42
93.6730000000	44
93.7030000000	41
93.7330000000	34
93.7630000000	27
93.7930000000	46
93.8230000000	43
93.8530000000	34
93.8830000000	48
93.9130000000	32
93.9430000000	34
93.9730000000	36
94.0030000000	44
94.0330000000	40
94.0630000000	37
94.0930000000	37
94.1230000000	40
94.1530000000	36
94.1830000000	41
94.2130000000	38
94.2430000000	40
94.2730000000	46
94.3030000000	37
94.3330000000	45
94.3630000000	38
94.3930000000	35
94.4230000000	38
94.4530000000	37
94.4830000000	36
94.5130000000	45
94.5430000000	43
94.5730000000	38
94.6030000000	44
94.6330000000	40
94.6630000000	41
94.6930000000	41
94.7230000000	34
94.7530000000	43
94.7830000000	48
94.8130000000	37
94.8430000000	41
94.8730000000	40
94.9030000000	40
94.9330000000	38
94.9630000000	33
94.9930000000	35
95.0230000000	40
95.0530000000	47
95.0830000000	42
95.1130000000	37
95.1430000000	32
95.1730000000	46
95.2030000000	36
95.2330000000	39
95.2630000000	45
95.2930000000	41
95.3230000000	29
95.3530000000	37
95.3830000000	42
95.4130000000	39
95.4430000000	42
95.4730000000	34
95.5030000000	36
95.5330000000	36
95.5630000000	35
95.5930000000	38
95.6230000000	33
95.6530000000	32
95.6830000000	29
95.7130000000	46
95.7430000000	43
95.7730000000	47
95.8030000000	41
95.8330000000	34
95.8630000000	36
95.8930000000	39
95.9230000000	32
95.9530000000	37
95.9830000000	37
96.0130000000	32
96.0430000000	28
96.0730000000	28
96.1030000000	35
96.1330000000	43
96.1630000000	47
96.1930000000	42
96.2230000000	40
96.2530000000	30
96.2830000000	38
96.3130000000	34
96.3430000000	44
96.3730000000	34
96.4030000000	43
96.4330000000	33
96.4630000000	47
96.4930000000	36
96.5230000000	32
96.5530000000	46
96.5830000000	36
96.6130000000	32
96.6430000000	31
96.6730000000	42
96.7030000000	27
96.7330000000	38
96.7630000000	45
96.7930000000	36
96.8230000000	30
96.8530000000	36
96.8830000000	38
96.9130000000	28
96.9430000000	54
96.9730000000	38
97.0030000000	31
97.0330000000	29
97.0630000000	41
97.0930000000	28
97.1230000000	36
97.1530000000	40
97.1830000000	28
97.2130000000	36
97.2430000000	35
97.2730000000	34
97.3030000000	37
97.3330000000	34
97.3630000000	40
97.3930000000	47
97.4230000000	43
97.4530000000	38
97.4830000000	38
97.5130000000	35
97.5430000000	36
97.5730000000	40
97.6030000000	39
97.6330000000	36
97.6630000000	36
97.6930000000	37
97.7230000000	43
97.7530000000	31
97.7830000000	30
97.8130000000	34
97.8430000000	40
97.8730000000	38
97.9030000000	28
97.9330000000	42
97.9630000000	23
97.9930000000	39
98.0230000000	38
98.0530000000	36
98.0830000000	38
98.1130000000	22
98.1430000000	44
98.1730000000	39
98.2030000000	31
98.2330000000	29
98.2630000000	42
98.2930000000	50
98.3230000000	38
98.3530000000	34
98.3830000000	54
98.4130000000	52
98.4430000000	33
98.4730000000	23
98.5030000000	30
98.5330000000	39
98.5630000000	43
98.5930000000	48
98.6230000000	37
98.6530000000	42
98.6830000000	42
98.7130000000	42
98.7430000000	32
98.7730000000	35
98.8030000000	43
98.8330000000	29
98.8630000000	27
98.8930000000	35
98.9230000000	42
98.9530000000	41
98.9830000000	48
99.0130000000	32
99.0430000000	36
99.0730000000	31
99.1030000000	41
99.1330000000	41
99.1630000000	37
99.1930000000	42
99.2230000000	41
99.2530000000	35
99.2830000000	34
99.3130000000	32
99.3430000000	38
99.3730000000	38
99.4030000000	33
99.4330000000	37
99.4630000000	28
99.4930000000	34
99.5230000000	45
99.5530000000	35
99.5830000000	39
99.6130000000	33
99.6430000000	46
99.6730000000	33
99.7030000000	32
99.7330000000	26
99.7630000000	35
99.7930000000	40
99.8230000000	36
99.8530000000	35
99.8830000000	36
99.9130000000	38
99.9430000000	47
99.9730000000	32
100.0030000000	37
100.0330000000	31
100.0630000000	35
100.0930000000	34
100.1230000000	37
100.1530000000	31
100.1830000000	26
100.2130000000	39
100.2430000000	38
100.2730000000	36
100.3030000000	40
100.3330000000	35
100.3630000000	34
100.3930000000	29
100.4230000000	41
100.4530000000	38
100.4830000000	50
100.5130000000	31
100.5430000000	32
100.5730000000	34
100.6030000000	40
100.6330000000	30
100.6630000000	32
100.6930000000	33
100.7230000000	40
100.7530000000	29
100.7830000000	34
100.8130000000	50
100.8430000000	34
100.8730000000	29
100.9030000000	35
100.9330000000	39
100.9630000000	29
100.9930000000	36
101.0230000000	44
101.0530000000	28
101.0830000000	49
101.1130000000	31
101.1430000000	32
101.1730000000	37
101.2030000000	27
101.2330000000	34
101.2630000000	35
101.2930000000	30
101.3230000000	31
101.3530000000	26
101.3830000000	45
101.4130000000	39
101.4430000000	38
101.4730000000	39
101.5030000000	38
101.5330000000	41
101.5630000000	40
101.5930000000	38
101.6230000000	39
101.6530000000	39
101.6830000000	35
101.7130000000	34
101.7430000000	45
101.7730000000	35
101.8030000000	29
101.8330000000	32
101.8630000000	39
101.8930000000	41
101.9230000000	38
101.9530000000	34
101.9830000000	36
102.0130000000	47
102.0430000000	37
102.0730000000	39
102.1030000000	43
102.1330000000	30
102.1630000000	24
102.1930000000	40
102.2230000000	39
102.2530000000	39
102.2830000000	42
102.3130000000	43
102.3430000000	33
102.3730000000	45
102.4030000000	44
102.4330000000	34
102.4630000000	33
102.4930000000	35
102.5230000000	46
102.5530000000	24
102.5830000000	35
102.6130000000	28
102.6430000000	26
102.6730000000	41
102.7030000000	39
102.7330000000	39
102.7630000000	34
102.7930000000	32
102.8230000000	31
102.8530000000	42
102.8830000000	43
102.9130000000	37
102.9430000000	32
102.9730000000	29
103.0030000000	35
103.0330000000	37
103.0630000000	31
103.0930000000	36
103.1230000000	40
103.1530000000	40
103.1830000000	36
103.2130000000	36
103.2430000000	41
103.2730000000	33
103.3030000000	29
103.3330000000	34
103.3630000000	27
103.3930000000	48
103.4230000000	39
103.4530000000	37
103.4830000000	39
103.5130000000	45
103.5430000000	29
103.5730000000	37
103.6030000000	38
103.6330000000	29
103.6630000000	34
103.6930000000	40
103.7230000000	42
103.7530000000	34
103.7830000000	35
103.8130000000	40
103.8430000000	36
103.8730000000	36
103.9030000000	50
103.9330000000	34
103.9630000000	41
103.9930000000	39
104.0230000000	52
104.0530000000	49
104.0830000000	37
104.1130000000	34
104.1430000000	34
104.1730000000	34
104.2030000000	36
104.2330000000	33
104.2630000000	47
104.2930000000	39
104.3230000000	43
104.3530000000	39
104.3830000000	42
104.4130000000	39
104.4430000000	38
104.4730000000	61
104.5030000000	51
104.5330000000	42
104.5630000000	52
104.5930000000	39
104.6230000000	46
104.6530000000	47
104.6830000000	47
104.7130000000	42
104.7430000000	47
104.7730000000	47
104.8030000000	45
104.8330000000	44
104.8630000000	44
104.8930000000	41
104.9230000000	38
104.9530000000	41
104.9830000000	36
105.0130000000	37
105.0430000000	30
105.0730000000	39
105.1030000000	41
105.1330000000	39
105.1630000000	41
105.1930000000	33
105.2230000000	35
105.2530000000	34
105.2830000000	35
105.3130000000	48
105.3430000000	43
105.3730000000	27
105.4030000000	47
105.4330000000	35
105.4630000000	33
105.4930000000	34
105.5230000000	40
105.5530000000	40
105.5830000000	45
105.6130000000	33
105.6430000000	32
105.6730000000	45
105.7030000000	42
105.7330000000	38
105.7630000000	38
105.7930000000	40
105.8230000000	43
105.8530000000	37
105.8830000000	36
105.9130000000	27
105.9430000000	50
105.9730000000	51
106.0030000000	26
106.0330000000	36
106.0630000000	35
106.0930000000	44
106.1230000000	36
106.1530000000	37
106.1830000000	36
106.2130000000	37
106.2430000000	28
106.2730000000	52
106.3030000000	36
106.3330000000	30
106.3630000000	37
106.3930000000	32
106.4230000000	36
106.4530000000	46
106.4830000000	42
106.5130000000	43
106.5430000000	41
106.5730000000	37
106.6030000000	50
106.6330000000	45
106.6630000000	42
106.6930000000	51
106.7230000000	47
106.7530000000	39
106.7830000000	42
106.8130000000	47
106.8430000000	36
106.8730000000	41
106.9030000000	30
106.9330000000	44
106.9630000000	27
106.9930000000	33
107.0230000000	38
107.0530000000	34
107.0830000000	32
107.1130000000	32
107.1430000000	37
107.1730000000	28
107.2030000000	22
107.2330000000	39
107.2630000000	36
107.2930000000	29
107.3230000000	34
107.3530000000	28
107.3830000000	44
107.4130000000	37
107.4430000000	42
107.4730000000	41
107.5030000000	42
107.5330000000	42
107.5630000000	40
107.5930000000	46
107.6230000000	36
107.6530000000	40
107.6830000000	41
107.7130000000	36
107.7430000000	36
107.7730000000	40
107.8030000000	39
107.8330000000	43
107.8630000000	42
107.8930000000	40
107.9230000000	45
107.9530000000	43
107.9830000000	40
108.0130000000	28
108.0430000000	38
108.0730000000	38
108.1030000000	37
108.1330000000	36
108.1630000000	45
108.1930000000	37
108.2230000000	33
108.2530000000	40
108.2830000000	38
108.3130000000	36
108.3430000000	47
108.3730000000	29
108.4030000000	30
108.4330000000	41
108.4630000000	49
108.4930000000	43
108.5230000000	41
108.5530000000	34
108.5830000000	41
108.6130000000	36
108.6430000000	39
108.6730000000	36
108.7030000000	36
108.7330000000	38
108.7630000000	35
108.7930000000	33
108.8230000000	33
108.8530000000	45
108.8830000000	33
108.9130000000	41
108.9430000000	36
108.9730000000	40
109.0030000000	44
109.0330000000	35
109.0630000000	28
109.0930000000	32
109.1230000000	45
109.1530000000	40
109.1830000000	29
109.2130000000	32
109.2430000000	42
109.2730000000	40
109.3030000000	35
109.3330000000	33
109.3630000000	41
109.3930000000	46
109.4230000000	41
109.4530000000	43
109.4830000000	45
109.5130000000	53
109.5430000000	25
109.5730000000	39
109.6030000000	29
109.6330000000	39
109.6630000000	36
109.6930000000	47
109.7230000000	26
109.7530000000	39
109.7830000000	49
109.8130000000	37
109.8430000000	46
109.8730000000	31
109.9030000000	41
109.9330000000	32
109.9630000000	47
109.9930000000	37
110.0230000000	55
110.0530000000	38
110.0830000000	40
110.1130000000	45
110.1430000000	48
110.1730000000	36
110.2030000000	27
110.2330000000	53
110.2630000000	33
110.2930000000	51
110.3230000000	37
110.3530000000	44
110.3830000000	39
110.4130000000	35
110.4430000000	41
110.4730000000	40
110.5030000000	34
110.5330000000	35
110.5630000000	30
110.5930000000	36
110.6230000000	49
110.6530000000	36
110.6830000000	44
110.7130000000	39
110.7430000000	33
110.7730000000	42
110.8030000000	32
110.8330000000	38
110.8630000000	41
110.8930000000	40
110.9230000000	41
110.9530000000	41
110.9830000000	35
111.0130000000	44
111.0430000000	53
111.0730000000	53
111.1030000000	50
111.1330000000	46
111.1630000000	44
111.1930000000	43
111.2230000000	40
111.2530000000	33
111.2830000000	35
111.3130000000	35
111.3430000000	44
111.3730000000	33
111.4030000000	45
111.4330000000	47
111.4630000000	39
111.4930000000	35
111.5230000000	32
111.5530000000	37
111.5830000000	37
111.6130000000	50
111.6430000000	47
111.6730000000	37
111.7030000000	43
111.7330000000	43
111.7630000000	41
111.7930000000	38
111.8230000000	45
111.8530000000	43
111.8830000000	29
111.9130000000	37
111.9430000000	41
111.9730000000	42
112.0030000000	46
112.0330000000	50
112.0630000000	26
112.0930000000	38
112.1230000000	44
112.1530000000	49
112.1830000000	40
112.2130000000	47
112.2430000000	43
112.2730000000	50
112.3030000000	43
112.3330000000	36
112.3630000000	44
112.3930000000	47
112.4230000000	36
112.4530000000	43
112.4830000000	36
112.5130000000	41
112.5430000000	48
112.5730000000	39
112.6030000000	38
112.6330000000	37
112.6630000000	35
112.6930000000	38
112.7230000000	43
112.7530000000	49
112.7830000000	50
112.8130000000	49
112.8430000000	57
112.8730000000	40
112.9030000000	64
112.9330000000	66
112.9630000000	63
112.9930000000	61
113.0230000000	56
113.0530000000	68
113.0830000000	57
113.1130000000	62
113.1430000000	65
113.1730000000	46
113.2030000000	41
113.2330000000	42
113.2630000000	44
113.2930000000	43
113.3230000000	48
113.3530000000	61
113.3830000000	59
113.4130000000	62
113.4430000000	59
113.4730000000	35
113.5030000000	47
113.5330000000	37
113.5630000000	36
113.5930000000	39
113.6230000000	29
113.6530000000	37
113.6830000000	55
113.7130000000	48
113.7430000000	43
113.7730000000	48
113.8030000000	48
113.8330000000	35
113.8630000000	36
113.8930000000	47
113.9230000000	45
113.9530000000	47
113.9830000000	51
114.0130000000	47
114.0430000000	38
114.0730000000	33
114.1030000000	41
114.1330000000	54
114.1630000000	44
114.1930000000	42
114.2230000000	46
114.2530000000	42
114.2830000000	35
114.3130000000	39
114.3430000000	47
114.3730000000	45
114.4030000000	37
114.4330000000	47
114.4630000000	1
114.4930000000	1
114.5230000000	1
114.5530000000	1
114.5830000000	1
