0.3130000000	1
0.3430000000	1
0.3730000000	2
0.4030000000	1
0.4330000000	1
0.4630000000	1
0.4930000000	1
0.5230000000	1
0.5530000000	1
0.5830000000	1
0.6130000000	1
0.6430000000	2
0.6730000000	1
0.7030000000	1
0.7330000000	1
0.7630000000	1
0.7930000000	1
0.8230000000	1
0.8530000000	1
0.8830000000	1
0.9130000000	1
0.9430000000	1
0.9730000000	1
1.0030000000	1
1.0330000000	1
1.0630000000	1
1.0930000000	2
1.1230000000	2
1.1530000000	1
1.1830000000	1
1.2130000000	1
1.2430000000	2
1.2730000000	1
1.3030000000	1
1.3330000000	1
1.3630000000	1
1.3930000000	1
1.4230000000	1
1.4530000000	2
1.4830000000	1
1.5130000000	1
1.5430000000	1
1.5730000000	1
1.6030000000	1
1.6330000000	2
1.6630000000	1
1.6930000000	1
1.7230000000	1
1.7530000000	1
1.7830000000	2
1.8130000000	2
1.8430000000	2
1.8730000000	1
1.9030000000	1
1.9330000000	1
1.9630000000	1
1.9930000000	1
2.0230000000	1
2.0530000000	1
2.0830000000	1
2.1130000000	2
2.1430000000	2
2.1730000000	2
2.2030000000	2
2.2330000000	1
2.2630000000	2
2.2930000000	1
2.3230000000	2
2.3530000000	2
2.3830000000	1
2.4130000000	1
2.4430000000	1
2.4730000000	2
2.5030000000	2
2.5330000000	1
2.5630000000	1
2.5930000000	2
2.6230000000	1
2.6530000000	2
2.6830000000	3
2.7130000000	1
2.7430000000	1
2.7730000000	1
2.8030000000	2
2.8330000000	1
2.8630000000	1
2.8930000000	2
2.9230000000	2
2.9530000000	3
2.9830000000	2
3.0130000000	1
3.0430000000	1
3.0730000000	2
3.1030000000	1
3.1330000000	2
3.1630000000	3
3.1930000000	1
3.2230000000	2
3.2530000000	3
3.2830000000	1
3.3130000000	2
3.3430000000	1
3.3730000000	1
3.4030000000	3
3.4330000000	2
3.4630000000	2
3.4930000000	4
3.5230000000	3
3.5530000000	3
3.5830000000	2
3.6130000000	3
3.6430000000	1
3.6730000000	2
3.7030000000	4
3.7330000000	2
3.7630000000	2
3.7930000000	2
3.8230000000	2
3.8530000000	1
3.8830000000	4
3.9130000000	2
3.9430000000	3
3.9730000000	3
4.0030000000	3
4.0330000000	3
4.0630000000	3
4.0930000000	3
4.1230000000	3
4.1530000000	2
4.1830000000	2
4.2130000000	2
4.2430000000	1
4.2730000000	4
4.3030000000	7
4.3330000000	4
4.3630000000	4
4.3930000000	5
4.4230000000	9
4.4530000000	10
4.4830000000	11
4.5130000000	17
4.5430000000	34
4.5730000000	46
4.6030000000	69
4.6330000000	102
4.6630000000	105
4.6930000000	111
4.7230000000	115
4.7530000000	129
4.7830000000	136
4.8130000000	120
4.8430000000	139
4.8730000000	137
4.9030000000	157
4.9330000000	122
4.9630000000	153
4.9930000000	129
5.0230000000	152
5.0530000000	132
5.0830000000	128
5.1130000000	159
5.1430000000	147
5.1730000000	126
5.2030000000	123
5.2330000000	165
5.2630000000	136
5.2930000000	159
5.3230000000	139
5.3530000000	139
5.3830000000	152
5.4130000000	146
5.4430000000	131
5.4730000000	119
5.5030000000	135
5.5330000000	161
5.5630000000	156
5.5930000000	142
5.6230000000	157
5.6530000000	143
5.6830000000	152
5.7130000000	156
5.7430000000	144
5.7730000000	145
5.8030000000	168
5.8330000000	143
5.8630000000	168
5.8930000000	166
5.9230000000	135
5.9530000000	145
5.9830000000	140
6.0130000000	157
6.0430000000	168
6.0730000000	157
6.1030000000	158
6.1330000000	147
6.1630000000	149
6.1930000000	125
6.2230000000	140
6.2530000000	134
6.2830000000	144
6.3130000000	153
6.3430000000	147
6.3730000000	148
6.4030000000	161
6.4330000000	170
6.4630000000	129
6.4930000000	151
6.5230000000	140
6.5530000000	129
6.5830000000	140
6.6130000000	145
6.6430000000	136
6.6730000000	153
6.7030000000	133
6.7330000000	153
6.7630000000	176
6.7930000000	144
6.8230000000	168
6.8530000000	147
6.8830000000	140
6.9130000000	179
6.9430000000	150
6.9730000000	139
7.0030000000	149
7.0330000000	154
7.0630000000	139
7.0930000000	162
7.1230000000	144
7.1530000000	132
7.1830000000	142
7.2130000000	147
7.2430000000	147
7.2730000000	142
7.3030000000	154
7.3330000000	140
7.3630000000	156
7.3930000000	152
7.4230000000	149
7.4530000000	152
7.4830000000	152
7.5130000000	144
7.5430000000	145
7.5730000000	131
7.6030000000	123
7.6330000000	145
7.6630000000	154
7.6930000000	162
7.7230000000	156
7.7530000000	133
7.7830000000	145
7.8130000000	163
7.8430000000	148
7.8730000000	154
7.9030000000	153
7.9330000000	143
7.9630000000	147
7.9930000000	138
8.0230000000	143
8.0530000000	125
8.0830000000	120
8.1130000000	145
8.1430000000	157
8.1730000000	134
8.2030000000	160
8.2330000000	160
8.2630000000	105
8.2930000000	145
8.3230000000	151
8.3530000000	135
8.3830000000	139
8.4130000000	148
8.4430000000	147
8.4730000000	127
8.5030000000	138
8.5330000000	122
8.5630000000	167
8.5930000000	138
8.6230000000	150
8.6530000000	148
8.6830000000	138
8.7130000000	172
8.7430000000	147
8.7730000000	138
8.8030000000	147
8.8330000000	129
8.8630000000	145
8.8930000000	153
8.9230000000	144
8.9530000000	128
8.9830000000	124
9.0130000000	139
9.0430000000	138
9.0730000000	131
9.1030000000	150
9.1330000000	158
9.1630000000	155
9.1930000000	154
9.2230000000	133
9.2530000000	135
9.2830000000	146
9.3130000000	134
9.3430000000	154
9.3730000000	143
9.4030000000	146
9.4330000000	163
9.4630000000	135
9.4930000000	140
9.5230000000	153
9.5530000000	136
9.5830000000	135
9.6130000000	141
9.6430000000	148
9.6730000000	137
9.7030000000	137
9.7330000000	150
9.7630000000	131
9.7930000000	156
9.8230000000	146
9.8530000000	154
9.8830000000	140
9.9130000000	155
9.9430000000	160
9.9730000000	140
10.0030000000	156
10.0330000000	139
10.0630000000	156
10.0930000000	142
10.1230000000	131
10.1530000000	162
10.1830000000	177
10.2130000000	161
10.2430000000	154
10.2730000000	161
10.3030000000	130
10.3330000000	154
10.3630000000	136
10.3930000000	147
10.4230000000	141
10.4530000000	135
10.4830000000	135
10.5130000000	132
10.5430000000	120
10.5730000000	150
10.6030000000	150
10.6330000000	159
10.6630000000	133
10.6930000000	153
10.7230000000	155
10.7530000000	142
10.7830000000	154
10.8130000000	142
10.8430000000	139
10.8730000000	132
10.9030000000	159
10.9330000000	131
10.9630000000	146
10.9930000000	160
11.0230000000	131
11.0530000000	125
11.0830000000	144
11.1130000000	125
11.1430000000	140
11.1730000000	145
11.2030000000	167
11.2330000000	147
11.2630000000	144
11.2930000000	144
11.3230000000	155
11.3530000000	161
11.3830000000	125
11.4130000000	151
11.4430000000	137
11.4730000000	137
11.5030000000	148
11.5330000000	146
11.5630000000	146
11.5930000000	150
11.6230000000	156
11.6530000000	158
11.6830000000	155
11.7130000000	139
11.7430000000	134
11.7730000000	119
11.8030000000	141
11.8330000000	147
11.8630000000	143
11.8930000000	141
11.9230000000	165
11.9530000000	140
11.9830000000	156
12.0130000000	145
12.0430000000	130
12.0730000000	139
12.1030000000	166
12.1330000000	145
12.1630000000	152
12.1930000000	154
12.2230000000	140
12.2530000000	173
12.2830000000	180
12.3130000000	161
12.3430000000	155
12.3730000000	154
12.4030000000	150
12.4330000000	143
12.4630000000	140
12.4930000000	136
12.5230000000	138
12.5530000000	161
12.5830000000	142
12.6130000000	135
12.6430000000	156
12.6730000000	141
12.7030000000	153
12.7330000000	170
12.7630000000	156
12.7930000000	133
12.8230000000	167
12.8530000000	164
12.8830000000	145
12.9130000000	162
12.9430000000	148
12.9730000000	139
13.0030000000	143
13.0330000000	158
13.0630000000	157
13.0930000000	144
13.1230000000	151
13.1530000000	152
13.1830000000	155
13.2130000000	149
13.2430000000	139
13.2730000000	163
13.3030000000	146
13.3330000000	138
13.3630000000	156
13.3930000000	150
13.4230000000	175
13.4530000000	161
13.4830000000	144
13.5130000000	146
13.5430000000	154
13.5730000000	144
13.6030000000	129
13.6330000000	158
13.6630000000	147
13.6930000000	136
13.7230000000	141
13.7530000000	152
13.7830000000	127
13.8130000000	139
13.8430000000	114
13.8730000000	145
13.9030000000	134
13.9330000000	122
13.9630000000	139
13.9930000000	145
14.0230000000	148
14.0530000000	136
14.0830000000	121
14.1130000000	120
14.1430000000	118
14.1730000000	139
14.2030000000	157
14.2330000000	141
14.2630000000	144
14.2930000000	127
14.3230000000	154
14.3530000000	155
14.3830000000	152
14.4130000000	155
14.4430000000	150
14.4730000000	157
14.5030000000	147
14.5330000000	168
14.5630000000	151
14.5930000000	145
14.6230000000	155
14.6530000000	156
14.6830000000	149
14.7130000000	169
14.7430000000	153
14.7730000000	137
14.8030000000	139
14.8330000000	141
14.8630000000	143
14.8930000000	166
14.9230000000	137
14.9530000000	163
14.9830000000	149
15.0130000000	145
15.0430000000	129
15.0730000000	155
15.1030000000	141
15.1330000000	135
15.1630000000	147
15.1930000000	161
15.2230000000	152
15.2530000000	161
15.2830000000	149
15.3130000000	161
15.3430000000	130
15.3730000000	153
15.4030000000	150
15.4330000000	145
15.4630000000	144
15.4930000000	169
15.5230000000	151
15.5530000000	145
15.5830000000	163
15.6130000000	157
15.6430000000	127
15.6730000000	149
15.7030000000	138
15.7330000000	176
15.7630000000	143
15.7930000000	140
15.8230000000	148
15.8530000000	146
15.8830000000	177
15.9130000000	168
15.9430000000	143
15.9730000000	138
16.0030000000	157
16.0330000000	161
16.0630000000	146
16.0930000000	135
16.1230000000	146
16.1530000000	152
16.1830000000	143
16.2130000000	142
16.2430000000	149
16.2730000000	143
16.3030000000	137
16.3330000000	139
16.3630000000	131
16.3930000000	138
16.4230000000	142
16.4530000000	148
16.4830000000	131
16.5130000000	131
16.5430000000	125
16.5730000000	172
16.6030000000	151
16.6330000000	148
16.6630000000	136
16.6930000000	121
16.7230000000	125
16.7530000000	153
16.7830000000	130
16.8130000000	140
16.8430000000	157
16.8730000000	139
16.9030000000	156
16.9330000000	150
16.9630000000	145
16.9930000000	148
17.0230000000	150
17.0530000000	168
17.0830000000	167
17.1130000000	152
17.1430000000	144
17.1730000000	133
17.2030000000	159
17.2330000000	147
17.2630000000	141
17.2930000000	166
17.3230000000	153
17.3530000000	130
17.3830000000	125
17.4130000000	142
17.4430000000	146
17.4730000000	137
17.5030000000	146
17.5330000000	145
17.5630000000	150
17.5930000000	153
17.6230000000	153
17.6530000000	149
17.6830000000	152
17.7130000000	152
17.7430000000	146
17.7730000000	150
17.8030000000	161
17.8330000000	147
17.8630000000	124
17.8930000000	131
17.9230000000	138
17.9530000000	150
17.9830000000	145
18.0130000000	140
18.0430000000	153
18.0730000000	129
18.1030000000	137
18.1330000000	126
18.1630000000	134
18.1930000000	116
18.2230000000	159
18.2530000000	141
18.2830000000	133
18.3130000000	138
18.3430000000	137
18.3730000000	135
18.4030000000	128
18.4330000000	139
18.4630000000	148
18.4930000000	150
18.5230000000	132
18.5530000000	146
18.5830000000	147
18.6130000000	148
18.6430000000	147
18.6730000000	138
18.7030000000	149
18.7330000000	150
18.7630000000	140
18.7930000000	140
18.8230000000	143
18.8530000000	168
18.8830000000	152
18.9130000000	132
18.9430000000	149
18.9730000000	156
19.0030000000	151
19.0330000000	161
19.0630000000	148
19.0930000000	147
19.1230000000	152
19.1530000000	157
19.1830000000	162
19.2130000000	129
19.2430000000	143
19.2730000000	152
19.3030000000	148
19.3330000000	182
19.3630000000	153
19.3930000000	176
19.4230000000	195
19.4530000000	228
19.4830000000	295
19.5130000000	321
19.5430000000	355
19.5730000000	329
19.6030000000	328
19.6330000000	273
19.6630000000	207
19.6930000000	193
19.7230000000	159
19.7530000000	172
19.7830000000	160
19.8130000000	155
19.8430000000	158
19.8730000000	151
19.9030000000	170
19.9330000000	159
19.9630000000	143
19.9930000000	130
20.0230000000	163
20.0530000000	148
20.0830000000	137
20.1130000000	157
20.1430000000	143
20.1730000000	148
20.2030000000	142
20.2330000000	178
20.2630000000	161
20.2930000000	166
20.3230000000	170
20.3530000000	145
20.3830000000	145
20.4130000000	171
20.4430000000	164
20.4730000000	147
20.5030000000	158
20.5330000000	134
20.5630000000	142
20.5930000000	150
20.6230000000	156
20.6530000000	170
20.6830000000	150
20.7130000000	146
20.7430000000	189
20.7730000000	194
20.8030000000	234
20.8330000000	256
20.8630000000	269
20.8930000000	338
20.9230000000	297
20.9530000000	265
20.9830000000	239
21.0130000000	198
21.0430000000	175
21.0730000000	152
21.1030000000	176
21.1330000000	138
21.1630000000	164
21.1930000000	145
21.2230000000	149
21.2530000000	156
21.2830000000	148
21.3130000000	140
21.3430000000	164
21.3730000000	138
21.4030000000	169
21.4330000000	165
21.4630000000	173
21.4930000000	180
21.5230000000	169
21.5530000000	164
21.5830000000	168
21.6130000000	133
21.6430000000	156
21.6730000000	143
21.7030000000	175
21.7330000000	162
21.7630000000	164
21.7930000000	163
21.8230000000	154
21.8530000000	167
21.8830000000	161
21.9130000000	173
21.9430000000	153
21.9730000000	151
22.0030000000	157
22.0330000000	161
22.0630000000	186
22.0930000000	173
22.1230000000	154
22.1530000000	161
22.1830000000	168
22.2130000000	162
22.2430000000	171
22.2730000000	148
22.3030000000	161
22.3330000000	180
22.3630000000	162
22.3930000000	152
22.4230000000	175
22.4530000000	185
22.4830000000	162
22.5130000000	160
22.5430000000	168
22.5730000000	185
22.6030000000	204
22.6330000000	231
22.6630000000	228
22.6930000000	209
22.7230000000	249
22.7530000000	218
22.7830000000	219
22.8130000000	192
22.8430000000	182
22.8730000000	171
22.9030000000	161
22.9330000000	174
22.9630000000	144
22.9930000000	145
23.0230000000	160
23.0530000000	198
23.0830000000	181
23.1130000000	142
23.1430000000	155
23.1730000000	151
23.2030000000	135
23.2330000000	163
23.2630000000	172
23.2930000000	177
23.3230000000	181
23.3530000000	164
23.3830000000	157
23.4130000000	184
23.4430000000	190
23.4730000000	146
23.5030000000	153
23.5330000000	154
23.5630000000	156
23.5930000000	160
23.6230000000	175
23.6530000000	171
23.6830000000	163
23.7130000000	179
23.7430000000	159
23.7730000000	161
23.8030000000	175
23.8330000000	160
23.8630000000	168
23.8930000000	156
23.9230000000	169
23.9530000000	190
23.9830000000	197
24.0130000000	163
24.0430000000	167
24.0730000000	182
24.1030000000	154
24.1330000000	170
24.1630000000	183
24.1930000000	152
24.2230000000	164
24.2530000000	178
24.2830000000	188
24.3130000000	169
24.3430000000	177
24.3730000000	177
24.4030000000	150
24.4330000000	178
24.4630000000	154
24.4930000000	159
24.5230000000	166
24.5530000000	162
24.5830000000	179
24.6130000000	181
24.6430000000	173
24.6730000000	167
24.7030000000	158
24.7330000000	186
24.7630000000	167
24.7930000000	131
24.8230000000	179
24.8530000000	170
24.8830000000	155
24.9130000000	171
24.9430000000	154
24.9730000000	158
25.0030000000	164
25.0330000000	165
25.0630000000	177
25.0930000000	174
25.1230000000	187
25.1530000000	163
25.1830000000	188
25.2130000000	178
25.2430000000	167
25.2730000000	151
25.3030000000	152
25.3330000000	194
25.3630000000	173
25.3930000000	157
25.4230000000	171
25.4530000000	169
25.4830000000	169
25.5130000000	183
25.5430000000	199
25.5730000000	225
25.6030000000	229
25.6330000000	245
25.6630000000	219
25.6930000000	207
25.7230000000	176
25.7530000000	154
25.7830000000	149
25.8130000000	151
25.8430000000	178
25.8730000000	170
25.9030000000	155
25.9330000000	169
25.9630000000	170
25.9930000000	190
26.0230000000	175
26.0530000000	170
26.0830000000	164
26.1130000000	174
26.1430000000	173
26.1730000000	218
26.2030000000	216
26.2330000000	228
26.2630000000	337
26.2930000000	453
26.3230000000	570
26.3530000000	743
26.3830000000	948
26.4130000000	958
26.4430000000	873
26.4730000000	679
26.5030000000	510
26.5330000000	391
26.5630000000	299
26.5930000000	236
26.6230000000	232
26.6530000000	206
26.6830000000	189
26.7130000000	189
26.7430000000	175
26.7730000000	172
26.8030000000	156
26.8330000000	153
26.8630000000	163
26.8930000000	165
26.9230000000	161
26.9530000000	147
26.9830000000	142
27.0130000000	154
27.0430000000	147
27.0730000000	148
27.1030000000	141
27.1330000000	136
27.1630000000	161
27.1930000000	163
27.2230000000	151
27.2530000000	143
27.2830000000	148
27.3130000000	160
27.3430000000	150
27.3730000000	134
27.4030000000	158
27.4330000000	155
27.4630000000	168
27.4930000000	154
27.5230000000	147
27.5530000000	129
27.5830000000	127
27.6130000000	138
27.6430000000	150
27.6730000000	148
27.7030000000	132
27.7330000000	159
27.7630000000	158
27.7930000000	178
27.8230000000	151
27.8530000000	143
27.8830000000	146
27.9130000000	162
27.9430000000	156
27.9730000000	148
28.0030000000	150
28.0330000000	152
28.0630000000	140
28.0930000000	162
28.1230000000	130
28.1530000000	142
28.1830000000	158
28.2130000000	145
28.2430000000	153
28.2730000000	175
28.3030000000	131
28.3330000000	132
28.3630000000	161
28.3930000000	152
28.4230000000	139
28.4530000000	150
28.4830000000	144
28.5130000000	158
28.5430000000	149
28.5730000000	145
28.6030000000	144
28.6330000000	120
28.6630000000	135
28.6930000000	133
28.7230000000	158
28.7530000000	130
28.7830000000	158
28.8130000000	163
28.8430000000	168
28.8730000000	167
28.9030000000	158
28.9330000000	144
28.9630000000	145
28.9930000000	143
29.0230000000	136
29.0530000000	165
29.0830000000	131
29.1130000000	149
29.1430000000	138
29.1730000000	149
29.2030000000	148
29.2330000000	141
29.2630000000	117
29.2930000000	145
29.3230000000	146
29.3530000000	143
29.3830000000	129
29.4130000000	151
29.4430000000	121
29.4730000000	122
29.5030000000	144
29.5330000000	123
29.5630000000	168
29.5930000000	139
29.6230000000	129
29.6530000000	128
29.6830000000	144
29.7130000000	154
29.7430000000	143
29.7730000000	147
29.8030000000	126
29.8330000000	141
29.8630000000	132
29.8930000000	145
29.9230000000	146
29.9530000000	145
29.9830000000	153
30.0130000000	151
30.0430000000	161
30.0730000000	180
30.1030000000	167
30.1330000000	211
30.1630000000	251
30.1930000000	401
30.2230000000	549
30.2530000000	738
30.2830000000	1144
30.3130000000	1738
30.3430000000	2454
30.3730000000	2880
30.4030000000	2936
30.4330000000	2390
30.4630000000	1679
30.4930000000	1133
30.5230000000	706
30.5530000000	475
30.5830000000	347
30.6130000000	265
30.6430000000	190
30.6730000000	170
30.7030000000	162
30.7330000000	174
30.7630000000	153
30.7930000000	152
30.8230000000	154
30.8530000000	155
30.8830000000	131
30.9130000000	128
30.9430000000	159
30.9730000000	124
31.0030000000	126
31.0330000000	143
31.0630000000	151
31.0930000000	144
31.1230000000	139
31.1530000000	125
31.1830000000	138
31.2130000000	128
31.2430000000	115
31.2730000000	132
31.3030000000	142
31.3330000000	132
31.3630000000	141
31.3930000000	131
31.4230000000	131
31.4530000000	132
31.4830000000	141
31.5130000000	164
31.5430000000	152
31.5730000000	169
31.6030000000	193
31.6330000000	188
31.6630000000	217
31.6930000000	310
31.7230000000	426
31.7530000000	537
31.7830000000	791
31.8130000000	1105
31.8430000000	1444
31.8730000000	1650
31.9030000000	1595
31.9330000000	1402
31.9630000000	1150
31.9930000000	978
32.0230000000	1002
32.0530000000	1143
32.0830000000	1206
32.1130000000	1117
32.1430000000	1007
32.1730000000	788
32.2030000000	554
32.2330000000	373
32.2630000000	261
32.2930000000	207
32.3230000000	188
32.3530000000	132
32.3830000000	119
32.4130000000	126
32.4430000000	134
32.4730000000	122
32.5030000000	120
32.5330000000	124
32.5630000000	128
32.5930000000	129
32.6230000000	109
32.6530000000	119
32.6830000000	114
32.7130000000	115
32.7430000000	110
32.7730000000	118
32.8030000000	118
32.8330000000	131
32.8630000000	120
32.8930000000	112
32.9230000000	108
32.9530000000	114
32.9830000000	130
33.0130000000	110
33.0430000000	102
33.0730000000	116
33.1030000000	126
33.1330000000	128
33.1630000000	143
33.1930000000	157
33.2230000000	151
33.2530000000	164
33.2830000000	184
33.3130000000	158
33.3430000000	145
33.3730000000	149
33.4030000000	142
33.4330000000	122
33.4630000000	118
33.4930000000	103
33.5230000000	119
33.5530000000	115
33.5830000000	96
33.6130000000	101
33.6430000000	110
33.6730000000	101
33.7030000000	96
33.7330000000	110
33.7630000000	106
33.7930000000	108
33.8230000000	106
33.8530000000	117
33.8830000000	109
33.9130000000	99
33.9430000000	108
33.9730000000	117
34.0030000000	107
34.0330000000	100
34.0630000000	112
34.0930000000	95
34.1230000000	90
34.1530000000	102
34.1830000000	116
34.2130000000	103
34.2430000000	97
34.2730000000	91
34.3030000000	93
34.3330000000	81
34.3630000000	90
34.3930000000	100
34.4230000000	107
34.4530000000	114
34.4830000000	104
34.5130000000	99
34.5430000000	89
34.5730000000	103
34.6030000000	104
34.6330000000	103
34.6630000000	105
34.6930000000	85
34.7230000000	94
34.7530000000	116
34.7830000000	96
34.8130000000	97
34.8430000000	99
34.8730000000	91
34.9030000000	110
34.9330000000	99
34.9630000000	102
34.9930000000	103
35.0230000000	97
35.0530000000	107
35.0830000000	122
35.1130000000	108
35.1430000000	119
35.1730000000	144
35.2030000000	168
35.2330000000	220
35.2630000000	240
35.2930000000	266
35.3230000000	279
35.3530000000	261
35.3830000000	236
35.4130000000	196
35.4430000000	138
35.4730000000	127
35.5030000000	119
35.5330000000	98
35.5630000000	109
35.5930000000	99
35.6230000000	92
35.6530000000	110
35.6830000000	99
35.7130000000	100
35.7430000000	82
35.7730000000	91
35.8030000000	106
35.8330000000	97
35.8630000000	108
35.8930000000	93
35.9230000000	79
35.9530000000	89
35.9830000000	94
36.0130000000	106
36.0430000000	94
36.0730000000	92
36.1030000000	103
36.1330000000	85
36.1630000000	99
36.1930000000	103
36.2230000000	112
36.2530000000	89
36.2830000000	90
36.3130000000	101
36.3430000000	100
36.3730000000	100
36.4030000000	108
36.4330000000	114
36.4630000000	148
36.4930000000	189
36.5230000000	215
36.5530000000	254
36.5830000000	321
36.6130000000	371
36.6430000000	366
36.6730000000	333
36.7030000000	308
36.7330000000	236
36.7630000000	172
36.7930000000	137
36.8230000000	113
36.8530000000	104
36.8830000000	105
36.9130000000	111
36.9430000000	105
36.9730000000	93
37.0030000000	84
37.0330000000	88
37.0630000000	114
37.0930000000	91
37.1230000000	103
37.1530000000	97
37.1830000000	88
37.2130000000	93
37.2430000000	102
37.2730000000	101
37.3030000000	93
37.3330000000	113
37.3630000000	97
37.3930000000	86
37.4230000000	92
37.4530000000	102
37.4830000000	86
37.5130000000	89
37.5430000000	96
37.5730000000	72
37.6030000000	71
37.6330000000	84
37.6630000000	85
37.6930000000	94
37.7230000000	77
37.7530000000	90
37.7830000000	92
37.8130000000	85
37.8430000000	80
37.8730000000	76
37.9030000000	80
37.9330000000	86
37.9630000000	73
37.9930000000	85
38.0230000000	80
38.0530000000	79
38.0830000000	82
38.1130000000	83
38.1430000000	86
38.1730000000	78
38.2030000000	77
38.2330000000	90
38.2630000000	78
38.2930000000	76
38.3230000000	91
38.3530000000	99
38.3830000000	106
38.4130000000	93
38.4430000000	84
38.4730000000	91
38.5030000000	81
38.5330000000	83
38.5630000000	77
38.5930000000	94
38.6230000000	96
38.6530000000	86
38.6830000000	88
38.7130000000	102
38.7430000000	99
38.7730000000	87
38.8030000000	88
38.8330000000	93
38.8630000000	103
38.8930000000	95
38.9230000000	81
38.9530000000	91
38.9830000000	108
39.0130000000	100
39.0430000000	89
39.0730000000	108
39.1030000000	100
39.1330000000	72
39.1630000000	106
39.1930000000	81
39.2230000000	84
39.2530000000	101
39.2830000000	89
39.3130000000	105
39.3430000000	116
39.3730000000	121
39.4030000000	130
39.4330000000	118
39.4630000000	105
39.4930000000	159
39.5230000000	216
39.5530000000	249
39.5830000000	379
39.6130000000	577
39.6430000000	789
39.6730000000	975
39.7030000000	1075
39.7330000000	1190
39.7630000000	1097
39.7930000000	928
39.8230000000	627
39.8530000000	431
39.8830000000	281
39.9130000000	212
39.9430000000	148
39.9730000000	117
40.0030000000	91
40.0330000000	98
40.0630000000	72
40.0930000000	105
40.1230000000	110
40.1530000000	88
40.1830000000	91
40.2130000000	95
40.2430000000	93
40.2730000000	86
40.3030000000	99
40.3330000000	68
40.3630000000	81
40.3930000000	75
40.4230000000	104
40.4530000000	87
40.4830000000	88
40.5130000000	75
40.5430000000	77
40.5730000000	107
40.6030000000	89
40.6330000000	79
40.6630000000	86
40.6930000000	102
40.7230000000	99
40.7530000000	91
40.7830000000	100
40.8130000000	91
40.8430000000	99
40.8730000000	76
40.9030000000	85
40.9330000000	98
40.9630000000	85
40.9930000000	81
41.0230000000	97
41.0530000000	92
41.0830000000	100
41.1130000000	99
41.1430000000	95
41.1730000000	77
41.2030000000	79
41.2330000000	92
41.2630000000	88
41.2930000000	97
41.3230000000	93
41.3530000000	83
41.3830000000	97
41.4130000000	95
41.4430000000	92
41.4730000000	78
41.5030000000	96
41.5330000000	97
41.5630000000	80
41.5930000000	84
41.6230000000	72
41.6530000000	86
41.6830000000	96
41.7130000000	80
41.7430000000	72
41.7730000000	72
41.8030000000	79
41.8330000000	86
41.8630000000	74
41.8930000000	61
41.9230000000	75
41.9530000000	85
41.9830000000	84
42.0130000000	83
42.0430000000	87
42.0730000000	92
42.1030000000	89
42.1330000000	80
42.1630000000	73
42.1930000000	86
42.2230000000	89
42.2530000000	81
42.2830000000	76
42.3130000000	92
42.3430000000	86
42.3730000000	82
42.4030000000	101
42.4330000000	100
42.4630000000	90
42.4930000000	90
42.5230000000	88
42.5530000000	82
42.5830000000	89
42.6130000000	99
42.6430000000	94
42.6730000000	95
42.7030000000	87
42.7330000000	87
42.7630000000	91
42.7930000000	84
42.8230000000	102
42.8530000000	109
42.8830000000	123
42.9130000000	146
42.9430000000	173
42.9730000000	218
43.0030000000	284
43.0330000000	432
43.0630000000	643
43.0930000000	889
43.1230000000	1133
43.1530000000	1247
43.1830000000	1162
43.2130000000	952
43.2430000000	775
43.2730000000	572
43.3030000000	392
43.3330000000	257
43.3630000000	183
43.3930000000	143
43.4230000000	110
43.4530000000	101
43.4830000000	115
43.5130000000	81
43.5430000000	94
43.5730000000	116
43.6030000000	114
43.6330000000	93
43.6630000000	124
43.6930000000	115
43.7230000000	95
43.7530000000	116
43.7830000000	119
43.8130000000	114
43.8430000000	90
43.8730000000	83
43.9030000000	75
43.9330000000	70
43.9630000000	76
43.9930000000	74
44.0230000000	90
44.0530000000	82
44.0830000000	63
44.1130000000	64
44.1430000000	73
44.1730000000	78
44.2030000000	73
44.2330000000	69
44.2630000000	75
44.2930000000	71
44.3230000000	68
44.3530000000	78
44.3830000000	77
44.4130000000	81
44.4430000000	77
44.4730000000	81
44.5030000000	84
44.5330000000	60
44.5630000000	70
44.5930000000	66
44.6230000000	83
44.6530000000	86
44.6830000000	71
44.7130000000	96
44.7430000000	106
44.7730000000	91
44.8030000000	95
44.8330000000	132
44.8630000000	177
44.8930000000	226
44.9230000000	315
44.9530000000	382
44.9830000000	506
45.0130000000	655
45.0430000000	741
45.0730000000	687
45.1030000000	660
45.1330000000	567
45.1630000000	437
45.1930000000	288
45.2230000000	222
45.2530000000	146
45.2830000000	123
45.3130000000	108
45.3430000000	88
45.3730000000	96
45.4030000000	84
45.4330000000	87
45.4630000000	74
45.4930000000	86
45.5230000000	70
45.5530000000	48
45.5830000000	71
45.6130000000	84
45.6430000000	84
45.6730000000	71
45.7030000000	64
45.7330000000	76
45.7630000000	78
45.7930000000	77
45.8230000000	74
45.8530000000	69
45.8830000000	74
45.9130000000	72
45.9430000000	103
45.9730000000	128
46.0030000000	153
46.0330000000	187
46.0630000000	178
46.0930000000	185
46.1230000000	189
46.1530000000	160
46.1830000000	132
46.2130000000	119
46.2430000000	100
46.2730000000	81
46.3030000000	102
46.3330000000	90
46.3630000000	95
46.3930000000	109
46.4230000000	111
46.4530000000	105
46.4830000000	99
46.5130000000	109
46.5430000000	75
46.5730000000	84
46.6030000000	71
46.6330000000	65
46.6630000000	63
46.6930000000	78
46.7230000000	85
46.7530000000	86
46.7830000000	113
46.8130000000	134
46.8430000000	164
46.8730000000	209
46.9030000000	292
46.9330000000	325
46.9630000000	279
46.9930000000	236
47.0230000000	212
47.0530000000	160
47.0830000000	120
47.1130000000	93
47.1430000000	88
47.1730000000	74
47.2030000000	85
47.2330000000	66
47.2630000000	65
47.2930000000	73
47.3230000000	64
47.3530000000	77
47.3830000000	75
47.4130000000	80
47.4430000000	90
47.4730000000	95
47.5030000000	87
47.5330000000	94
47.5630000000	101
47.5930000000	73
47.6230000000	82
47.6530000000	79
47.6830000000	66
47.7130000000	64
47.7430000000	78
47.7730000000	58
47.8030000000	65
47.8330000000	64
47.8630000000	65
47.8930000000	66
47.9230000000	55
47.9530000000	52
47.9830000000	68
48.0130000000	63
48.0430000000	58
48.0730000000	60
48.1030000000	60
48.1330000000	49
48.1630000000	50
48.1930000000	55
48.2230000000	61
48.2530000000	63
48.2830000000	59
48.3130000000	64
48.3430000000	55
48.3730000000	51
48.4030000000	60
48.4330000000	66
48.4630000000	66
48.4930000000	52
48.5230000000	45
48.5530000000	62
48.5830000000	54
48.6130000000	51
48.6430000000	63
48.6730000000	58
48.7030000000	58
48.7330000000	58
48.7630000000	55
48.7930000000	58
48.8230000000	58
48.8530000000	63
48.8830000000	62
48.9130000000	56
48.9430000000	62
48.9730000000	63
49.0030000000	48
49.0330000000	42
49.0630000000	56
49.0930000000	48
49.1230000000	52
49.1530000000	60
49.1830000000	76
49.2130000000	57
49.2430000000	66
49.2730000000	67
49.3030000000	57
49.3330000000	48
49.3630000000	53
49.3930000000	59
49.4230000000	57
49.4530000000	54
49.4830000000	46
49.5130000000	62
49.5430000000	67
49.5730000000	50
49.6030000000	48
49.6330000000	54
49.6630000000	79
49.6930000000	52
49.7230000000	60
49.7530000000	45
49.7830000000	51
49.8130000000	59
49.8430000000	61
49.8730000000	55
49.9030000000	53
49.9330000000	50
49.9630000000	49
49.9930000000	55
50.0230000000	56
50.0530000000	70
50.0830000000	68
50.1130000000	61
50.1430000000	52
50.1730000000	54
50.2030000000	55
50.2330000000	59
50.2630000000	53
50.2930000000	56
50.3230000000	80
50.3530000000	58
50.3830000000	75
50.4130000000	84
50.4430000000	81
50.4730000000	114
50.5030000000	99
50.5330000000	93
50.5630000000	86
50.5930000000	82
50.6230000000	87
50.6530000000	83
50.6830000000	71
50.7130000000	56
50.7430000000	51
50.7730000000	52
50.8030000000	59
50.8330000000	56
50.8630000000	58
50.8930000000	53
50.9230000000	59
50.9530000000	53
50.9830000000	55
51.0130000000	57
51.0430000000	58
51.0730000000	64
51.1030000000	58
51.1330000000	53
51.1630000000	49
51.1930000000	47
51.2230000000	48
51.2530000000	58
51.2830000000	53
51.3130000000	48
51.3430000000	49
51.3730000000	59
51.4030000000	57
51.4330000000	57
51.4630000000	57
51.4930000000	57
51.5230000000	58
51.5530000000	44
51.5830000000	44
51.6130000000	54
51.6430000000	52
51.6730000000	47
51.7030000000	48
51.7330000000	59
51.7630000000	55
51.7930000000	56
51.8230000000	57
51.8530000000	51
51.8830000000	57
51.9130000000	54
51.9430000000	54
51.9730000000	53
52.0030000000	60
52.0330000000	64
52.0630000000	69
52.0930000000	70
52.1230000000	100
52.1530000000	74
52.1830000000	87
52.2130000000	82
52.2430000000	75
52.2730000000	85
52.3030000000	77
52.3330000000	48
52.3630000000	64
52.3930000000	61
52.4230000000	49
52.4530000000	50
52.4830000000	52
52.5130000000	64
52.5430000000	52
52.5730000000	58
52.6030000000	54
52.6330000000	61
52.6630000000	73
52.6930000000	74
52.7230000000	61
52.7530000000	63
52.7830000000	58
52.8130000000	68
52.8430000000	53
52.8730000000	50
52.9030000000	56
52.9330000000	59
52.9630000000	47
52.9930000000	41
53.0230000000	63
53.0530000000	67
53.0830000000	54
53.1130000000	49
53.1430000000	53
53.1730000000	56
53.2030000000	60
53.2330000000	49
53.2630000000	49
53.2930000000	52
53.3230000000	51
53.3530000000	57
53.3830000000	48
53.4130000000	59
53.4430000000	60
53.4730000000	59
53.5030000000	61
53.5330000000	56
53.5630000000	46
53.5930000000	61
53.6230000000	59
53.6530000000	66
53.6830000000	57
53.7130000000	66
53.7430000000	92
53.7730000000	83
53.8030000000	91
53.8330000000	128
53.8630000000	128
53.8930000000	113
53.9230000000	107
53.9530000000	83
53.9830000000	90
54.0130000000	84
54.0430000000	76
54.0730000000	67
54.1030000000	69
54.1330000000	47
54.1630000000	57
54.1930000000	64
54.2230000000	62
54.2530000000	54
54.2830000000	66
54.3130000000	46
54.3430000000	57
54.3730000000	51
54.4030000000	58
54.4330000000	56
54.4630000000	54
54.4930000000	50
54.5230000000	60
54.5530000000	40
54.5830000000	59
54.6130000000	50
54.6430000000	43
54.6730000000	49
54.7030000000	55
54.7330000000	43
54.7630000000	63
54.7930000000	55
54.8230000000	82
54.8530000000	91
54.8830000000	91
54.9130000000	121
54.9430000000	108
54.9730000000	100
55.0030000000	94
55.0330000000	107
55.0630000000	92
55.0930000000	79
55.1230000000	75
55.1530000000	71
55.1830000000	80
55.2130000000	43
55.2430000000	75
55.2730000000	67
55.3030000000	68
55.3330000000	95
55.3630000000	100
55.3930000000	111
55.4230000000	120
55.4530000000	135
55.4830000000	139
55.5130000000	104
55.5430000000	89
55.5730000000	108
55.6030000000	69
55.6330000000	69
55.6630000000	75
55.6930000000	61
55.7230000000	57
55.7530000000	48
55.7830000000	53
55.8130000000	44
55.8430000000	42
55.8730000000	63
55.9030000000	64
55.9330000000	61
55.9630000000	40
55.9930000000	49
56.0230000000	47
56.0530000000	68
56.0830000000	63
56.1130000000	48
56.1430000000	49
56.1730000000	45
56.2030000000	38
56.2330000000	51
56.2630000000	46
56.2930000000	49
56.3230000000	49
56.3530000000	45
56.3830000000	40
56.4130000000	51
56.4430000000	49
56.4730000000	41
56.5030000000	37
56.5330000000	48
56.5630000000	57
56.5930000000	48
56.6230000000	52
56.6530000000	44
56.6830000000	43
56.7130000000	51
56.7430000000	39
56.7730000000	35
56.8030000000	31
56.8330000000	41
56.8630000000	47
56.8930000000	52
56.9230000000	45
56.9530000000	49
56.9830000000	40
57.0130000000	51
57.0430000000	47
57.0730000000	44
57.1030000000	61
57.1330000000	54
57.1630000000	47
57.1930000000	60
57.2230000000	50
57.2530000000	54
57.2830000000	54
57.3130000000	54
57.3430000000	48
57.3730000000	39
57.4030000000	43
57.4330000000	44
57.4630000000	36
57.4930000000	49
57.5230000000	42
57.5530000000	40
57.5830000000	41
57.6130000000	52
57.6430000000	47
57.6730000000	44
57.7030000000	47
57.7330000000	52
57.7630000000	47
57.7930000000	30
57.8230000000	52
57.8530000000	38
57.8830000000	50
57.9130000000	47
57.9430000000	34
57.9730000000	41
58.0030000000	55
58.0330000000	42
58.0630000000	46
58.0930000000	59
58.1230000000	46
58.1530000000	45
58.1830000000	39
58.2130000000	54
58.2430000000	45
58.2730000000	38
58.3030000000	37
58.3330000000	52
58.3630000000	46
58.3930000000	51
58.4230000000	44
58.4530000000	35
58.4830000000	42
58.5130000000	49
58.5430000000	36
58.5730000000	35
58.6030000000	37
58.6330000000	37
58.6630000000	38
58.6930000000	48
58.7230000000	37
58.7530000000	46
58.7830000000	49
58.8130000000	44
58.8430000000	43
58.8730000000	56
58.9030000000	48
58.9330000000	48
58.9630000000	57
58.9930000000	39
59.0230000000	44
59.0530000000	47
59.0830000000	38
59.1130000000	33
59.1430000000	44
59.1730000000	37
59.2030000000	47
59.2330000000	45
59.2630000000	41
59.2930000000	40
59.3230000000	42
59.3530000000	37
59.3830000000	40
59.4130000000	60
59.4430000000	51
59.4730000000	60
59.5030000000	49
59.5330000000	50
59.5630000000	48
59.5930000000	37
59.6230000000	51
59.6530000000	54
59.6830000000	50
59.7130000000	47
59.7430000000	49
59.7730000000	48
59.8030000000	50
59.8330000000	48
59.8630000000	50
59.8930000000	38
59.9230000000	44
59.9530000000	49
59.9830000000	51
60.0130000000	59
60.0430000000	50
60.0730000000	76
60.1030000000	92
60.1330000000	120
60.1630000000	147
60.1930000000	149
60.2230000000	112
60.2530000000	128
60.2830000000	102
60.3130000000	118
60.3430000000	89
60.3730000000	81
60.4030000000	52
60.4330000000	53
60.4630000000	55
60.4930000000	48
60.5230000000	44
60.5530000000	39
60.5830000000	52
60.6130000000	44
60.6430000000	43
60.6730000000	37
60.7030000000	44
60.7330000000	43
60.7630000000	38
60.7930000000	45
60.8230000000	46
60.8530000000	44
60.8830000000	35
60.9130000000	45
60.9430000000	45
60.9730000000	47
61.0030000000	51
61.0330000000	44
61.0630000000	51
61.0930000000	50
61.1230000000	55
61.1530000000	64
61.1830000000	63
61.2130000000	69
61.2430000000	53
61.2730000000	67
61.3030000000	52
61.3330000000	80
61.3630000000	64
61.3930000000	55
61.4230000000	86
61.4530000000	94
61.4830000000	105
61.5130000000	103
61.5430000000	109
61.5730000000	114
61.6030000000	103
61.6330000000	105
61.6630000000	78
61.6930000000	84
61.7230000000	64
61.7530000000	48
61.7830000000	50
61.8130000000	49
61.8430000000	44
61.8730000000	42
61.9030000000	53
61.9330000000	41
61.9630000000	35
61.9930000000	35
62.0230000000	33
62.0530000000	39
62.0830000000	49
62.1130000000	31
62.1430000000	51
62.1730000000	38
62.2030000000	39
62.2330000000	46
62.2630000000	49
62.2930000000	45
62.3230000000	39
62.3530000000	51
62.3830000000	38
62.4130000000	48
62.4430000000	39
62.4730000000	52
62.5030000000	33
62.5330000000	55
62.5630000000	56
62.5930000000	40
62.6230000000	45
62.6530000000	35
62.6830000000	33
62.7130000000	40
62.7430000000	42
62.7730000000	44
62.8030000000	36
62.8330000000	35
62.8630000000	40
62.8930000000	42
62.9230000000	42
62.9530000000	42
62.9830000000	39
63.0130000000	32
63.0430000000	41
63.0730000000	47
63.1030000000	52
63.1330000000	47
63.1630000000	38
63.1930000000	44
63.2230000000	49
63.2530000000	51
63.2830000000	41
63.3130000000	52
63.3430000000	64
63.3730000000	53
63.4030000000	51
63.4330000000	49
63.4630000000	53
63.4930000000	50
63.5230000000	45
63.5530000000	47
63.5830000000	47
63.6130000000	46
63.6430000000	35
63.6730000000	39
63.7030000000	42
63.7330000000	45
63.7630000000	45
63.7930000000	47
63.8230000000	44
63.8530000000	38
63.8830000000	44
63.9130000000	44
63.9430000000	55
63.9730000000	38
64.0030000000	39
64.0330000000	41
64.0630000000	45
64.0930000000	33
64.1230000000	37
64.1530000000	46
64.1830000000	44
64.2130000000	49
64.2430000000	47
64.2730000000	45
64.3030000000	37
64.3330000000	40
64.3630000000	36
64.3930000000	29
64.4230000000	40
64.4530000000	47
64.4830000000	42
64.5130000000	50
64.5430000000	46
64.5730000000	43
64.6030000000	48
64.6330000000	47
64.6630000000	50
64.6930000000	55
64.7230000000	47
64.7530000000	50
64.7830000000	38
64.8130000000	43
64.8430000000	48
64.8730000000	47
64.9030000000	39
64.9330000000	39
64.9630000000	35
64.9930000000	49
65.0230000000	41
65.0530000000	47
65.0830000000	34
65.1130000000	41
65.1430000000	46
65.1730000000	47
65.2030000000	37
65.2330000000	32
65.2630000000	36
65.2930000000	34
65.3230000000	44
65.3530000000	30
65.3830000000	48
65.4130000000	42
65.4430000000	49
65.4730000000	41
65.5030000000	49
65.5330000000	46
65.5630000000	40
65.5930000000	30
65.6230000000	50
65.6530000000	41
65.6830000000	43
65.7130000000	51
65.7430000000	43
65.7730000000	38
65.8030000000	50
65.8330000000	40
65.8630000000	53
65.8930000000	40
65.9230000000	41
65.9530000000	52
65.9830000000	70
66.0130000000	76
66.0430000000	81
66.0730000000	93
66.1030000000	101
66.1330000000	125
66.1630000000	151
66.1930000000	145
66.2230000000	152
66.2530000000	120
66.2830000000	138
66.3130000000	101
66.3430000000	102
66.3730000000	90
66.4030000000	86
66.4330000000	72
66.4630000000	65
66.4930000000	54
66.5230000000	50
66.5530000000	49
66.5830000000	57
66.6130000000	64
66.6430000000	50
66.6730000000	45
66.7030000000	49
66.7330000000	43
66.7630000000	51
66.7930000000	44
66.8230000000	49
66.8530000000	60
66.8830000000	46
66.9130000000	41
66.9430000000	36
66.9730000000	37
67.0030000000	46
67.0330000000	45
67.0630000000	38
67.0930000000	41
67.1230000000	36
67.1530000000	37
67.1830000000	43
67.2130000000	42
67.2430000000	35
67.2730000000	36
67.3030000000	29
67.3330000000	40
67.3630000000	42
67.3930000000	43
67.4230000000	46
67.4530000000	34
67.4830000000	50
67.5130000000	37
67.5430000000	35
67.5730000000	38
67.6030000000	44
67.6330000000	46
67.6630000000	40
67.6930000000	49
67.7230000000	50
67.7530000000	44
67.7830000000	36
67.8130000000	47
67.8430000000	51
67.8730000000	41
67.9030000000	47
67.9330000000	45
67.9630000000	39
67.9930000000	44
68.0230000000	38
68.0530000000	43
68.0830000000	45
68.1130000000	46
68.1430000000	45
68.1730000000	40
68.2030000000	49
68.2330000000	44
68.2630000000	43
68.2930000000	36
68.3230000000	44
68.3530000000	37
68.3830000000	43
68.4130000000	36
68.4430000000	43
68.4730000000	45
68.5030000000	47
68.5330000000	39
68.5630000000	46
68.5930000000	29
68.6230000000	30
68.6530000000	32
68.6830000000	46
68.7130000000	47
68.7430000000	33
68.7730000000	43
68.8030000000	45
68.8330000000	39
68.8630000000	36
68.8930000000	44
68.9230000000	43
68.9530000000	38
68.9830000000	44
69.0130000000	45
69.0430000000	48
69.0730000000	32
69.1030000000	46
69.1330000000	52
69.1630000000	44
69.1930000000	51
69.2230000000	59
69.2530000000	54
69.2830000000	51
69.3130000000	41
69.3430000000	33
69.3730000000	46
69.4030000000	29
69.4330000000	44
69.4630000000	46
69.4930000000	48
69.5230000000	45
69.5530000000	48
69.5830000000	40
69.6130000000	43
69.6430000000	46
69.6730000000	52
69.7030000000	47
69.7330000000	39
69.7630000000	56
69.7930000000	56
69.8230000000	50
69.8530000000	41
69.8830000000	32
69.9130000000	46
69.9430000000	42
69.9730000000	45
70.0030000000	40
70.0330000000	60
70.0630000000	37
70.0930000000	37
70.1230000000	48
70.1530000000	48
70.1830000000	46
70.2130000000	43
70.2430000000	43
70.2730000000	52
70.3030000000	58
70.3330000000	44
70.3630000000	38
70.3930000000	31
70.4230000000	38
70.4530000000	38
70.4830000000	37
70.5130000000	47
70.5430000000	45
70.5730000000	46
70.6030000000	36
70.6330000000	39
70.6630000000	33
70.6930000000	51
70.7230000000	31
70.7530000000	49
70.7830000000	43
70.8130000000	34
70.8430000000	34
70.8730000000	39
70.9030000000	51
70.9330000000	36
70.9630000000	34
70.9930000000	37
71.0230000000	40
71.0530000000	44
71.0830000000	46
71.1130000000	43
71.1430000000	38
71.1730000000	40
71.2030000000	26
71.2330000000	36
71.2630000000	34
71.2930000000	39
71.3230000000	35
71.3530000000	32
71.3830000000	42
71.4130000000	33
71.4430000000	34
71.4730000000	49
71.5030000000	42
71.5330000000	56
71.5630000000	45
71.5930000000	45
71.6230000000	52
71.6530000000	37
71.6830000000	43
71.7130000000	51
71.7430000000	48
71.7730000000	36
71.8030000000	53
71.8330000000	43
71.8630000000	52
71.8930000000	53
71.9230000000	57
71.9530000000	39
71.9830000000	53
72.0130000000	63
72.0430000000	58
72.0730000000	62
72.1030000000	48
72.1330000000	54
72.1630000000	72
72.1930000000	72
72.2230000000	83
72.2530000000	95
72.2830000000	105
72.3130000000	106
72.3430000000	100
72.3730000000	75
72.4030000000	102
72.4330000000	98
72.4630000000	76
72.4930000000	76
72.5230000000	57
72.5530000000	60
72.5830000000	59
72.6130000000	69
72.6430000000	58
72.6730000000	71
72.7030000000	82
72.7330000000	100
72.7630000000	135
72.7930000000	148
72.8230000000	161
72.8530000000	135
72.8830000000	137
72.9130000000	118
72.9430000000	116
72.9730000000	129
73.0030000000	125
73.0330000000	93
73.0630000000	87
73.0930000000	71
73.1230000000	67
73.1530000000	66
73.1830000000	61
73.2130000000	60
73.2430000000	58
73.2730000000	49
73.3030000000	60
73.3330000000	49
73.3630000000	46
73.3930000000	43
73.4230000000	46
73.4530000000	46
73.4830000000	42
73.5130000000	41
73.5430000000	42
73.5730000000	48
73.6030000000	47
73.6330000000	40
73.6630000000	33
73.6930000000	43
73.7230000000	50
73.7530000000	30
73.7830000000	35
73.8130000000	34
73.8430000000	41
73.8730000000	39
73.9030000000	48
73.9330000000	45
73.9630000000	53
73.9930000000	31
74.0230000000	33
74.0530000000	38
74.0830000000	44
74.1130000000	37
74.1430000000	48
74.1730000000	52
74.2030000000	42
74.2330000000	39
74.2630000000	43
74.2930000000	33
74.3230000000	41
74.3530000000	45
74.3830000000	53
74.4130000000	43
74.4430000000	29
74.4730000000	45
74.5030000000	55
74.5330000000	41
74.5630000000	35
74.5930000000	38
74.6230000000	42
74.6530000000	44
74.6830000000	61
74.7130000000	59
74.7430000000	49
74.7730000000	58
74.8030000000	49
74.8330000000	47
74.8630000000	41
74.8930000000	44
74.9230000000	48
74.9530000000	63
74.9830000000	44
75.0130000000	57
75.0430000000	53
75.0730000000	56
75.1030000000	54
75.1330000000	61
75.1630000000	56
75.1930000000	40
75.2230000000	50
75.2530000000	47
75.2830000000	43
75.3130000000	37
75.3430000000	32
75.3730000000	40
75.4030000000	40
75.4330000000	33
75.4630000000	38
75.4930000000	36
75.5230000000	39
75.5530000000	49
75.5830000000	42
75.6130000000	33
75.6430000000	56
75.6730000000	51
75.7030000000	43
75.7330000000	40
75.7630000000	45
75.7930000000	45
75.8230000000	32
75.8530000000	36
75.8830000000	35
75.9130000000	39
75.9430000000	33
75.9730000000	44
76.0030000000	43
76.0330000000	40
76.0630000000	44
76.0930000000	47
76.1230000000	44
76.1530000000	33
76.1830000000	31
76.2130000000	45
76.2430000000	54
76.2730000000	29
76.3030000000	35
76.3330000000	30
76.3630000000	54
76.3930000000	44
76.4230000000	45
76.4530000000	39
76.4830000000	39
76.5130000000	39
76.5430000000	46
76.5730000000	46
76.6030000000	40
76.6330000000	41
76.6630000000	38
76.6930000000	38
76.7230000000	41
76.7530000000	41
76.7830000000	30
76.8130000000	36
76.8430000000	46
76.8730000000	39
76.9030000000	25
76.9330000000	41
76.9630000000	51
76.9930000000	32
77.0230000000	33
77.0530000000	37
77.0830000000	48
77.1130000000	31
77.1430000000	45
77.1730000000	46
77.2030000000	46
77.2330000000	57
77.2630000000	38
77.2930000000	37
77.3230000000	51
77.3530000000	51
77.3830000000	53
77.4130000000	45
77.4430000000	57
77.4730000000	78
77.5030000000	76
77.5330000000	75
77.5630000000	67
77.5930000000	64
77.6230000000	56
77.6530000000	66
77.6830000000	63
77.7130000000	57
77.7430000000	45
77.7730000000	58
77.8030000000	50
77.8330000000	52
77.8630000000	57
77.8930000000	51
77.9230000000	47
77.9530000000	43
77.9830000000	46
78.0130000000	44
78.0430000000	49
78.0730000000	54
78.1030000000	38
78.1330000000	45
78.1630000000	41
78.1930000000	39
78.2230000000	33
78.2530000000	37
78.2830000000	47
78.3130000000	46
78.3430000000	41
78.3730000000	40
78.4030000000	33
78.4330000000	38
78.4630000000	49
78.4930000000	37
78.5230000000	43
78.5530000000	42
78.5830000000	50
78.6130000000	45
78.6430000000	41
78.6730000000	48
78.7030000000	51
78.7330000000	55
78.7630000000	57
78.7930000000	48
78.8230000000	52
78.8530000000	50
78.8830000000	47
78.9130000000	36
78.9430000000	49
78.9730000000	43
79.0030000000	43
79.0330000000	39
79.0630000000	41
79.0930000000	42
79.1230000000	44
79.1530000000	37
79.1830000000	38
79.2130000000	33
79.2430000000	31
79.2730000000	37
79.3030000000	34
79.3330000000	26
79.3630000000	48
79.3930000000	39
79.4230000000	33
79.4530000000	42
79.4830000000	31
79.5130000000	33
79.5430000000	43
79.5730000000	44
79.6030000000	48
79.6330000000	28
79.6630000000	43
79.6930000000	48
79.7230000000	54
79.7530000000	50
79.7830000000	49
79.8130000000	44
79.8430000000	52
79.8730000000	39
79.9030000000	45
79.9330000000	41
79.9630000000	44
79.9930000000	45
80.0230000000	42
80.0530000000	41
80.0830000000	31
80.1130000000	41
80.1430000000	39
80.1730000000	38
80.2030000000	49
80.2330000000	44
80.2630000000	37
80.2930000000	33
80.3230000000	36
80.3530000000	39
80.3830000000	45
80.4130000000	39
80.4430000000	49
80.4730000000	55
80.5030000000	62
80.5330000000	44
80.5630000000	70
80.5930000000	60
80.6230000000	54
80.6530000000	47
80.6830000000	54
80.7130000000	49
80.7430000000	47
80.7730000000	40
80.8030000000	46
80.8330000000	58
80.8630000000	37
80.8930000000	42
80.9230000000	33
80.9530000000	40
80.9830000000	30
81.0130000000	45
81.0430000000	42
81.0730000000	50
81.1030000000	39
81.1330000000	56
81.1630000000	45
81.1930000000	42
81.2230000000	44
81.2530000000	39
81.2830000000	46
81.3130000000	43
81.3430000000	47
81.3730000000	58
81.4030000000	48
81.4330000000	46
81.4630000000	35
81.4930000000	32
81.5230000000	35
81.5530000000	41
81.5830000000	49
81.6130000000	37
81.6430000000	34
81.6730000000	33
81.7030000000	33
81.7330000000	39
81.7630000000	41
81.7930000000	36
81.8230000000	44
81.8530000000	35
81.8830000000	43
81.9130000000	38
81.9430000000	48
81.9730000000	37
82.0030000000	37
82.0330000000	31
82.0630000000	42
82.0930000000	32
82.1230000000	39
82.1530000000	33
82.1830000000	31
82.2130000000	33
82.2430000000	41
82.2730000000	42
82.3030000000	33
82.3330000000	35
82.3630000000	37
82.3930000000	36
82.4230000000	33
82.4530000000	40
82.4830000000	33
82.5130000000	28
82.5430000000	35
82.5730000000	44
82.6030000000	37
82.6330000000	34
82.6630000000	37
82.6930000000	38
82.7230000000	35
82.7530000000	44
82.7830000000	43
82.8130000000	42
82.8430000000	40
82.8730000000	39
82.9030000000	43
82.9330000000	44
82.9630000000	56
82.9930000000	42
83.0230000000	40
83.0530000000	40
83.0830000000	46
83.1130000000	54
83.1430000000	32
83.1730000000	53
83.2030000000	45
83.2330000000	61
83.2630000000	49
83.2930000000	44
83.3230000000	45
83.3530000000	39
83.3830000000	50
83.4130000000	56
83.4430000000	69
83.4730000000	53
83.5030000000	46
83.5330000000	39
83.5630000000	43
83.5930000000	46
83.6230000000	44
83.6530000000	40
83.6830000000	45
83.7130000000	25
83.7430000000	35
83.7730000000	41
83.8030000000	42
83.8330000000	34
83.8630000000	49
83.8930000000	36
83.9230000000	37
83.9530000000	46
83.9830000000	29
84.0130000000	38
84.0430000000	33
84.0730000000	37
84.1030000000	37
84.1330000000	42
84.1630000000	42
84.1930000000	34
84.2230000000	29
84.2530000000	47
84.2830000000	46
84.3130000000	37
84.3430000000	40
84.3730000000	38
84.4030000000	36
84.4330000000	36
84.4630000000	42
84.4930000000	44
84.5230000000	43
84.5530000000	31
84.5830000000	39
84.6130000000	32
84.6430000000	33
84.6730000000	42
84.7030000000	37
84.7330000000	36
84.7630000000	33
84.7930000000	38
84.8230000000	30
84.8530000000	41
84.8830000000	34
84.9130000000	32
84.9430000000	42
84.9730000000	33
85.0030000000	32
85.0330000000	38
85.0630000000	46
85.0930000000	21
85.1230000000	39
85.1530000000	40
85.1830000000	48
85.2130000000	40
85.2430000000	37
85.2730000000	45
85.3030000000	38
85.3330000000	34
85.3630000000	43
85.3930000000	37
85.4230000000	42
85.4530000000	34
85.4830000000	32
85.5130000000	39
85.5430000000	30
85.5730000000	27
85.6030000000	41
85.6330000000	40
85.6630000000	36
85.6930000000	29
85.7230000000	32
85.7530000000	32
85.7830000000	40
85.8130000000	34
85.8430000000	33
85.8730000000	39
85.9030000000	49
85.9330000000	43
85.9630000000	39
85.9930000000	35
86.0230000000	39
86.0530000000	42
86.0830000000	38
86.1130000000	41
86.1430000000	46
86.1730000000	33
86.2030000000	35
86.2330000000	35
86.2630000000	40
86.2930000000	43
86.3230000000	36
86.3530000000	40
86.3830000000	40
86.4130000000	41
86.4430000000	32
86.4730000000	37
86.5030000000	42
86.5330000000	45
86.5630000000	42
86.5930000000	29
86.6230000000	39
86.6530000000	45
86.6830000000	39
86.7130000000	52
86.7430000000	44
86.7730000000	38
86.8030000000	51
86.8330000000	58
86.8630000000	51
86.8930000000	42
86.9230000000	44
86.9530000000	45
86.9830000000	39
87.0130000000	47
87.0430000000	46
87.0730000000	39
87.1030000000	45
87.1330000000	43
87.1630000000	37
87.1930000000	40
87.2230000000	39
87.2530000000	30
87.2830000000	31
87.3130000000	40
87.3430000000	39
87.3730000000	39
87.4030000000	44
87.4330000000	48
87.4630000000	22
87.4930000000	37
87.5230000000	41
87.5530000000	51
87.5830000000	38
87.6130000000	43
87.6430000000	43
87.6730000000	34
87.7030000000	35
87.7330000000	42
87.7630000000	49
87.7930000000	44
87.8230000000	43
87.8530000000	38
87.8830000000	38
87.9130000000	39
87.9430000000	32
87.9730000000	41
88.0030000000	54
88.0330000000	38
88.0630000000	32
88.0930000000	44
88.1230000000	56
88.1530000000	55
88.1830000000	49
88.2130000000	44
88.2430000000	58
88.2730000000	53
88.3030000000	41
88.3330000000	44
88.3630000000	43
88.3930000000	49
88.4230000000	51
88.4530000000	47
88.4830000000	45
88.5130000000	40
88.5430000000	47
88.5730000000	48
88.6030000000	46
88.6330000000	40
88.6630000000	38
88.6930000000	47
88.7230000000	31
88.7530000000	47
88.7830000000	32
88.8130000000	45
88.8430000000	42
88.8730000000	46
88.9030000000	37
88.9330000000	48
88.9630000000	37
88.9930000000	51
89.0230000000	25
89.0530000000	43
89.0830000000	35
89.1130000000	40
89.1430000000	44
89.1730000000	37
89.2030000000	33
89.2330000000	44
89.2630000000	38
89.2930000000	54
89.3230000000	46
89.3530000000	50
89.3830000000	54
89.4130000000	48
89.4430000000	44
89.4730000000	52
89.5030000000	54
89.5330000000	39
89.5630000000	48
89.5930000000	50
89.6230000000	46
89.6530000000	53
89.6830000000	55
89.7130000000	45
89.7430000000	37
89.7730000000	39
89.8030000000	34
89.8330000000	31
89.8630000000	38
89.8930000000	36
89.9230000000	31
89.9530000000	34
89.9830000000	36
90.0130000000	32
90.0430000000	34
90.0730000000	38
90.1030000000	47
90.1330000000	38
90.1630000000	53
90.1930000000	39
90.2230000000	37
90.2530000000	44
90.2830000000	46
90.3130000000	53
90.3430000000	41
90.3730000000	39
90.4030000000	46
90.4330000000	43
90.4630000000	49
90.4930000000	42
90.5230000000	42
90.5530000000	38
90.5830000000	39
90.6130000000	39
90.6430000000	51
90.6730000000	40
90.7030000000	32
90.7330000000	40
90.7630000000	33
90.7930000000	39
90.8230000000	29
90.8530000000	40
90.8830000000	41
90.9130000000	33
90.9430000000	32
90.9730000000	34
91.0030000000	38
91.0330000000	47
91.0630000000	40
91.0930000000	33
91.1230000000	29
91.1530000000	35
91.1830000000	34
91.2130000000	38
91.2430000000	37
91.2730000000	41
91.3030000000	46
91.3330000000	45
91.3630000000	36
91.3930000000	41
91.4230000000	40
91.4530000000	42
91.4830000000	38
91.5130000000	33
91.5430000000	35
91.5730000000	37
91.6030000000	33
91.6330000000	40
91.6630000000	38
91.6930000000	23
91.7230000000	32
91.7530000000	41
91.7830000000	54
91.8130000000	26
91.8430000000	35
91.8730000000	36
91.9030000000	40
91.9330000000	42
91.9630000000	28
91.9930000000	39
92.0230000000	39
92.0530000000	37
92.0830000000	31
92.1130000000	33
92.1430000000	40
92.1730000000	38
92.2030000000	39
92.2330000000	34
92.2630000000	37
92.2930000000	38
92.3230000000	40
92.3530000000	32
92.3830000000	25
92.4130000000	39
92.4430000000	36
92.4730000000	36
92.5030000000	34
92.5330000000	32
92.5630000000	44
92.5930000000	40
92.6230000000	32
92.6530000000	37
92.6830000000	35
92.7130000000	43
92.7430000000	39
92.7730000000	45
92.8030000000	34
92.8330000000	38
92.8630000000	39
92.8930000000	41
92.9230000000	39
92.9530000000	42
92.9830000000	35
93.0130000000	30
93.0430000000	31
93.0730000000	43
93.1030000000	45
93.1330000000	40
93.1630000000	35
93.1930000000	36
93.2230000000	35
93.2530000000	36
93.2830000000	40
93.3130000000	37
93.3430000000	49
93.3730000000	38
93.4030000000	46
93.4330000000	32
93.4630000000	30
93.4930000000	30
93.5230000000	35
93.5530000000	38
93.5830000000	42
93.6130000000	35
93.6430000000	43
93.6730000000	49
93.7030000000	32
93.7330000000	46
93.7630000000	35
93.7930000000	42
93.8230000000	35
93.8530000000	42
93.8830000000	39
93.9130000000	42
93.9430000000	40
93.9730000000	46
94.0030000000	40
94.0330000000	42
94.0630000000	34
94.0930000000	37
94.1230000000	51
94.1530000000	27
94.1830000000	34
94.2130000000	30
94.2430000000	28
94.2730000000	44
94.3030000000	36
94.3330000000	39
94.3630000000	37
94.3930000000	42
94.4230000000	36
94.4530000000	24
94.4830000000	29
94.5130000000	43
94.5430000000	41
94.5730000000	28
94.6030000000	30
94.6330000000	39
94.6630000000	41
94.6930000000	43
94.7230000000	46
94.7530000000	43
94.7830000000	41
94.8130000000	47
94.8430000000	42
94.8730000000	47
94.9030000000	31
94.9330000000	28
94.9630000000	42
94.9930000000	32
95.0230000000	31
95.0530000000	48
95.0830000000	51
95.1130000000	29
95.1430000000	44
95.1730000000	37
95.2030000000	42
95.2330000000	34
95.2630000000	39
95.2930000000	34
95.3230000000	38
95.3530000000	37
95.3830000000	38
95.4130000000	38
95.4430000000	36
95.4730000000	43
95.5030000000	50
95.5330000000	43
95.5630000000	41
95.5930000000	25
95.6230000000	46
95.6530000000	37
95.6830000000	32
95.7130000000	31
95.7430000000	43
95.7730000000	38
95.8030000000	41
95.8330000000	41
95.8630000000	44
95.8930000000	38
95.9230000000	43
95.9530000000	46
95.9830000000	40
96.0130000000	37
96.0430000000	41
96.0730000000	39
96.1030000000	38
96.1330000000	41
96.1630000000	32
96.1930000000	44
96.2230000000	35
96.2530000000	38
96.2830000000	32
96.3130000000	37
96.3430000000	43
96.3730000000	32
96.4030000000	37
96.4330000000	39
96.4630000000	32
96.4930000000	48
96.5230000000	39
96.5530000000	31
96.5830000000	27
96.6130000000	35
96.6430000000	38
96.6730000000	37
96.7030000000	35
96.7330000000	40
96.7630000000	35
96.7930000000	38
96.8230000000	51
96.8530000000	38
96.8830000000	38
96.9130000000	33
96.9430000000	43
96.9730000000	40
97.0030000000	32
97.0330000000	40
97.0630000000	44
97.0930000000	40
97.1230000000	44
97.1530000000	36
97.1830000000	23
97.2130000000	44
97.2430000000	46
97.2730000000	43
97.3030000000	41
97.3330000000	42
97.3630000000	42
97.3930000000	41
97.4230000000	41
97.4530000000	38
97.4830000000	33
97.5130000000	32
97.5430000000	30
97.5730000000	37
97.6030000000	36
97.6330000000	51
97.6630000000	36
97.6930000000	38
97.7230000000	34
97.7530000000	36
97.7830000000	35
97.8130000000	29
97.8430000000	37
97.8730000000	28
97.9030000000	35
97.9330000000	32
97.9630000000	40
97.9930000000	37
98.0230000000	52
98.0530000000	35
98.0830000000	37
98.1130000000	40
98.1430000000	41
98.1730000000	35
98.2030000000	49
98.2330000000	37
98.2630000000	37
98.2930000000	40
98.3230000000	43
98.3530000000	39
98.3830000000	33
98.4130000000	31
98.4430000000	42
98.4730000000	51
98.5030000000	37
98.5330000000	32
98.5630000000	35
98.5930000000	34
98.6230000000	49
98.6530000000	44
98.6830000000	44
98.7130000000	40
98.7430000000	40
98.7730000000	42
98.8030000000	34
98.8330000000	33
98.8630000000	41
98.8930000000	38
98.9230000000	46
98.9530000000	38
98.9830000000	33
99.0130000000	40
99.0430000000	37
99.0730000000	30
99.1030000000	37
99.1330000000	42
99.1630000000	42
99.1930000000	30
99.2230000000	30
99.2530000000	39
99.2830000000	42
99.3130000000	27
99.3430000000	52
99.3730000000	39
99.4030000000	37
99.4330000000	36
99.4630000000	35
99.4930000000	27
99.5230000000	52
99.5530000000	39
99.5830000000	38
99.6130000000	40
99.6430000000	41
99.6730000000	35
99.7030000000	38
99.7330000000	32
99.7630000000	37
99.7930000000	34
99.8230000000	29
99.8530000000	41
99.8830000000	36
99.9130000000	32
99.9430000000	35
99.9730000000	31
100.0030000000	50
100.0330000000	43
100.0630000000	39
100.0930000000	46
100.1230000000	42
100.1530000000	36
100.1830000000	38
100.2130000000	44
100.2430000000	40
100.2730000000	33
100.3030000000	40
100.3330000000	31
100.3630000000	31
100.3930000000	33
100.4230000000	38
100.4530000000	35
100.4830000000	49
100.5130000000	40
100.5430000000	47
100.5730000000	36
100.6030000000	40
100.6330000000	34
100.6630000000	40
100.6930000000	33
100.7230000000	46
100.7530000000	40
100.7830000000	33
100.8130000000	35
100.8430000000	26
100.8730000000	38
100.9030000000	36
100.9330000000	41
100.9630000000	41
100.9930000000	46
101.0230000000	51
101.0530000000	35
101.0830000000	33
101.1130000000	44
101.1430000000	29
101.1730000000	36
101.2030000000	37
101.2330000000	37
101.2630000000	37
101.2930000000	31
101.3230000000	29
101.3530000000	27
101.3830000000	33
101.4130000000	47
101.4430000000	49
101.4730000000	38
101.5030000000	34
101.5330000000	34
101.5630000000	36
101.5930000000	39
101.6230000000	39
101.6530000000	35
101.6830000000	32
101.7130000000	36
101.7430000000	38
101.7730000000	46
101.8030000000	32
101.8330000000	35
101.8630000000	42
101.8930000000	38
101.9230000000	40
101.9530000000	44
101.9830000000	33
102.0130000000	33
102.0430000000	40
102.0730000000	41
102.1030000000	26
102.1330000000	31
102.1630000000	46
102.1930000000	41
102.2230000000	30
102.2530000000	30
102.2830000000	26
102.3130000000	26
102.3430000000	45
102.3730000000	39
102.4030000000	36
102.4330000000	36
102.4630000000	34
102.4930000000	40
102.5230000000	41
102.5530000000	46
102.5830000000	38
102.6130000000	36
102.6430000000	43
102.6730000000	34
102.7030000000	37
102.7330000000	35
102.7630000000	26
102.7930000000	48
102.8230000000	29
102.8530000000	36
102.8830000000	33
102.9130000000	29
102.9430000000	24
102.9730000000	29
103.0030000000	39
103.0330000000	39
103.0630000000	36
103.0930000000	35
103.1230000000	34
103.1530000000	30
103.1830000000	34
103.2130000000	36
103.2430000000	32
103.2730000000	30
103.3030000000	27
103.3330000000	29
103.3630000000	41
103.3930000000	47
103.4230000000	37
103.4530000000	45
103.4830000000	35
103.5130000000	34
103.5430000000	39
103.5730000000	37
103.6030000000	45
103.6330000000	39
103.6630000000	33
103.6930000000	30
103.7230000000	51
103.7530000000	41
103.7830000000	44
103.8130000000	47
103.8430000000	37
103.8730000000	39
103.9030000000	40
103.9330000000	42
103.9630000000	37
103.9930000000	37
104.0230000000	38
104.0530000000	32
104.0830000000	27
104.1130000000	47
104.1430000000	33
104.1730000000	36
104.2030000000	40
104.2330000000	42
104.2630000000	35
104.2930000000	43
104.3230000000	34
104.3530000000	38
104.3830000000	56
104.4130000000	37
104.4430000000	36
104.4730000000	38
104.5030000000	38
104.5330000000	50
104.5630000000	46
104.5930000000	47
104.6230000000	39
104.6530000000	47
104.6830000000	39
104.7130000000	45
104.7430000000	32
104.7730000000	44
104.8030000000	46
104.8330000000	45
104.8630000000	38
104.8930000000	41
104.9230000000	37
104.9530000000	31
104.9830000000	32
105.0130000000	38
105.0430000000	46
105.0730000000	44
105.1030000000	33
105.1330000000	25
105.1630000000	29
105.1930000000	36
105.2230000000	32
105.2530000000	38
105.2830000000	43
105.3130000000	40
105.3430000000	30
105.3730000000	36
105.4030000000	40
105.4330000000	33
105.4630000000	35
105.4930000000	43
105.5230000000	36
105.5530000000	44
105.5830000000	42
105.6130000000	37
105.6430000000	25
105.6730000000	35
105.7030000000	24
105.7330000000	37
105.7630000000	41
105.7930000000	43
105.8230000000	24
105.8530000000	36
105.8830000000	42
105.9130000000	42
105.9430000000	34
105.9730000000	26
106.0030000000	35
106.0330000000	45
106.0630000000	42
106.0930000000	39
106.1230000000	37
106.1530000000	43
106.1830000000	32
106.2130000000	41
106.2430000000	34
106.2730000000	37
106.3030000000	43
106.3330000000	36
106.3630000000	32
106.3930000000	36
106.4230000000	45
106.4530000000	37
106.4830000000	42
106.5130000000	47
106.5430000000	47
106.5730000000	44
106.6030000000	58
106.6330000000	54
106.6630000000	45
106.6930000000	44
106.7230000000	41
106.7530000000	44
106.7830000000	34
106.8130000000	46
106.8430000000	40
106.8730000000	37
106.9030000000	44
106.9330000000	44
106.9630000000	54
106.9930000000	43
107.0230000000	44
107.0530000000	30
107.0830000000	28
107.1130000000	35
107.1430000000	37
107.1730000000	40
107.2030000000	36
107.2330000000	41
107.2630000000	49
107.2930000000	49
107.3230000000	34
107.3530000000	30
107.3830000000	33
107.4130000000	38
107.4430000000	38
107.4730000000	37
107.5030000000	43
107.5330000000	34
107.5630000000	36
107.5930000000	37
107.6230000000	39
107.6530000000	34
107.6830000000	42
107.7130000000	47
107.7430000000	43
107.7730000000	42
107.8030000000	36
107.8330000000	43
107.8630000000	51
107.8930000000	37
107.9230000000	35
107.9530000000	39
107.9830000000	30
108.0130000000	45
108.0430000000	39
108.0730000000	49
108.1030000000	29
108.1330000000	28
108.1630000000	40
108.1930000000	46
108.2230000000	41
108.2530000000	38
108.2830000000	44
108.3130000000	36
108.3430000000	39
108.3730000000	33
108.4030000000	33
108.4330000000	40
108.4630000000	45
108.4930000000	35
108.5230000000	40
108.5530000000	40
108.5830000000	42
108.6130000000	38
108.6430000000	36
108.6730000000	25
108.7030000000	37
108.7330000000	33
108.7630000000	38
108.7930000000	36
108.8230000000	42
108.8530000000	43
108.8830000000	33
108.9130000000	37
108.9430000000	36
108.9730000000	32
109.0030000000	40
109.0330000000	33
109.0630000000	37
109.0930000000	37
109.1230000000	40
109.1530000000	36
109.1830000000	40
109.2130000000	40
109.2430000000	41
109.2730000000	33
109.3030000000	43
109.3330000000	35
109.3630000000	36
109.3930000000	38
109.4230000000	44
109.4530000000	50
109.4830000000	45
109.5130000000	49
109.5430000000	36
109.5730000000	42
109.6030000000	39
109.6330000000	43
109.6630000000	45
109.6930000000	31
109.7230000000	42
109.7530000000	29
109.7830000000	42
109.8130000000	34
109.8430000000	35
109.8730000000	42
109.9030000000	40
109.9330000000	39
109.9630000000	46
109.9930000000	50
110.0230000000	44
110.0530000000	36
110.0830000000	47
110.1130000000	37
110.1430000000	44
110.1730000000	30
110.2030000000	33
110.2330000000	36
110.2630000000	34
110.2930000000	41
110.3230000000	41
110.3530000000	33
110.3830000000	40
110.4130000000	41
110.4430000000	43
110.4730000000	47
110.5030000000	31
110.5330000000	36
110.5630000000	37
110.5930000000	34
110.6230000000	44
110.6530000000	44
110.6830000000	34
110.7130000000	34
110.7430000000	40
110.7730000000	41
110.8030000000	41
110.8330000000	41
110.8630000000	42
110.8930000000	32
110.9230000000	29
110.9530000000	37
110.9830000000	51
111.0130000000	36
111.0430000000	41
111.0730000000	49
111.1030000000	43
111.1330000000	46
111.1630000000	34
111.1930000000	37
111.2230000000	50
111.2530000000	36
111.2830000000	50
111.3130000000	47
111.3430000000	36
111.3730000000	45
111.4030000000	34
111.4330000000	47
111.4630000000	33
111.4930000000	36
111.5230000000	41
111.5530000000	32
111.5830000000	41
111.6130000000	30
111.6430000000	34
111.6730000000	43
111.7030000000	33
111.7330000000	29
111.7630000000	36
111.7930000000	37
111.8230000000	36
111.8530000000	25
111.8830000000	37
111.9130000000	29
111.9430000000	45
111.9730000000	43
112.0030000000	34
112.0330000000	41
112.0630000000	42
112.0930000000	48
112.1230000000	30
112.1530000000	30
112.1830000000	48
112.2130000000	43
112.2430000000	43
112.2730000000	59
112.3030000000	45
112.3330000000	41
112.3630000000	47
112.3930000000	43
112.4230000000	39
112.4530000000	44
112.4830000000	46
112.5130000000	44
112.5430000000	37
112.5730000000	46
112.6030000000	48
112.6330000000	39
112.6630000000	43
112.6930000000	43
112.7230000000	43
112.7530000000	47
112.7830000000	42
112.8130000000	37
112.8430000000	58
112.8730000000	52
112.9030000000	59
112.9330000000	57
112.9630000000	65
112.9930000000	70
113.0230000000	61
113.0530000000	42
113.0830000000	51
113.1130000000	45
113.1430000000	52
113.1730000000	43
113.2030000000	49
113.2330000000	48
113.2630000000	65
113.2930000000	58
113.3230000000	67
113.3530000000	58
113.3830000000	53
113.4130000000	47
113.4430000000	39
113.4730000000	44
113.5030000000	36
113.5330000000	52
113.5630000000	41
113.5930000000	35
113.6230000000	43
113.6530000000	36
113.6830000000	40
113.7130000000	58
113.7430000000	42
113.7730000000	42
113.8030000000	50
113.8330000000	46
113.8630000000	46
113.8930000000	48
113.9230000000	39
113.9530000000	43
113.9830000000	46
114.0130000000	43
114.0430000000	39
114.0730000000	49
114.1030000000	38
114.1330000000	43
114.1630000000	48
114.1930000000	40
114.2230000000	37
114.2530000000	37
114.2830000000	40
114.3130000000	48
114.3430000000	51
114.3730000000	42
114.4030000000	46
114.4330000000	29
114.4630000000	1
114.4930000000	1
114.5230000000	1
114.5530000000	1
114.5830000000	1
